Time,Amp
0.0,0.0016428714672206597
4.1666666666666665e-05,0.0016643579669263183
8.333333333333333e-05,0.0016858269198056985
0.000125,0.0017072771056250574
0.00016666666666666666,0.0017287073071566407
0.00020833333333333335,0.0017501163104656475
0.00025,0.0017715029051971372
0.0002916666666666667,0.0017928658848627174
0.0003333333333333333,0.001814204047126031
0.000375,0.0018355161940854692
0.0004166666666666667,0.0018568011325523829
0.0004583333333333333,0.0018780576743233793
0.0005,0.0018992846364459825
0.0005416666666666666,0.0019204808414774858
0.0005833333333333334,0.0019416451177371127
0.000625,0.001962776299551995
0.0006666666666666666,0.0019838732274981294
0.0007083333333333334,0.002004934748637677
0.00075,0.0020259597167533038
0.0007916666666666666,0.002046946992579632
0.0008333333333333334,0.002067895444032001
0.000875,0.0020888039464333564
0.0009166666666666666,0.0021096713827402566
0.0009583333333333333,0.002130496643768255
0.001,0.0021512786284161732
0.0010416666666666667,0.0021720162438886403
0.0010833333333333333,0.00219270840591614
0.001125,0.002213354038971385
0.0011666666666666668,0.0022339520764807176
0.0012083333333333334,0.0022545014610296952
0.00125,0.0022750011445626613
0.0012916666666666667,0.0022954500885765295
0.0013333333333333333,0.0023158472643088988
0.001375,0.002336191652920286
0.0014166666666666668,0.002356482245670124
0.0014583333333333334,0.002376718044086357
0.0015,0.002396898060128564
0.0015416666666666667,0.0024170213163444386
0.0015833333333333333,0.0024370868460191313
0.001625,0.0024570936933167144
0.0016666666666666668,0.002477040913413207
0.0017083333333333334,0.002496927572620966
0.00175,0.002516752748504342
0.0017916666666666667,0.0025365155299866037
0.0018333333333333333,0.0025562150174485393
0.001875,0.0025758503228193157
0.0019166666666666666,0.002595420569659976
0.001958333333333333,0.0026149248932397255
0.002,0.002634362440605155
0.0020416666666666665,0.002653732370642713
0.0020833333333333333,0.0026730338541348284
0.002125,0.0026922660738097045
0.0021666666666666666,0.0027114282243841143
0.0022083333333333334,0.0027305195125985624
0.00225,0.002749539157245051
0.0022916666666666667,0.0027684863891883414
0.0023333333333333335,0.0027873604513812163
0.002375,0.0028061605988734415
0.002416666666666667,0.0028248860988139496
0.002458333333333333,0.002843536230446123
0.0025,0.002862110285096165
0.0025416666666666665,0.0028806075661543854
0.0025833333333333333,0.002899027389049313
0.002625,0.0029173690812147857
0.0026666666666666666,0.002935631982050009
0.0027083333333333334,0.0029538154428721012
0.00275,0.0029719188268603975
0.0027916666666666667,0.002989941508991956
0.0028333333333333335,0.003007882875967891
0.002875,0.003025742326130162
0.002916666666666667,0.003043519269368536
0.002958333333333333,0.003061213127017749
0.003,0.0030788233317453483
0.0030416666666666665,0.003096349327431182
0.0030833333333333333,0.0031137905690400256
0.003125,0.0031311465224890824
0.0031666666666666666,0.0031484166645115
0.0032083333333333334,0.0031656004825161683
0.00325,0.0031826974744440088
0.0032916666666666667,0.003199707148621988
0.0033333333333333335,0.003216629023616867
0.003375,0.0032334626280902876
0.003416666666666667,0.0032502075006555805
0.0034583333333333332,0.0032668631897359293
0.0035,0.003283429253423354
0.0035416666666666665,0.0032999052593379067
0.0035833333333333333,0.0033162907844863304
0.003625,0.003332585415119821
0.0036666666666666666,0.0033487887465912373
0.0037083333333333334,0.0033649003832122784
0.00375,0.0033809199381106855
0.0037916666666666667,0.0033968470330875086
0.003833333333333333,0.0034126812984749642
0.003875,0.003428422372995864
0.003916666666666666,0.0034440699036255326
0.003958333333333334,0.0034596235454566037
0.004,0.0034750829615666735
0.0040416666666666665,0.0034904478228888385
0.004083333333333333,0.003505717808085085
0.004125,0.0035208926034223193
0.004166666666666667,0.003535971902651011
0.004208333333333333,0.003550955406887041
0.00425,0.0035658428244976356
0.004291666666666667,0.0035806338709922173
0.004333333333333333,0.003595328268918997
0.004375,0.003609925747768117
0.004416666666666667,0.003624426043881978
0.004458333333333333,0.0036388289003729656
0.0045,0.0036531340670480856
0.004541666666666667,0.0036673413003392333
0.004583333333333333,0.003681450363237665
0.004625,0.0036954610252322375
0.004666666666666667,0.0037093730622522634
0.0047083333333333335,0.0037231862566161904
0.00475,0.0037369003969869043
0.004791666666666666,0.0037505152783339547
0.004833333333333334,0.003764030701902522
0.004875,0.0037774464751888495
0.004916666666666666,0.003790762411922184
0.004958333333333334,0.003803978332053703
0.005,0.0038170940617530714
0.0050416666666666665,0.0038301094334131946
0.005083333333333333,0.0038430242856628675
0.005125,0.0038558384633859306
0.005166666666666667,0.0038685518177453268
0.005208333333333333,0.0038811642062110546
0.00525,0.0038936754925912517
0.005291666666666667,0.003906085547065473
0.005333333333333333,0.003918394246219045
0.005375,0.0039306014730776904
0.005416666666666667,0.0039427071171425285
0.005458333333333333,0.003954711074426596
0.0055,0.003966613247494366
0.005541666666666667,0.003978413545504902
0.005583333333333333,0.0039901118842582475
0.005625,0.004001708186244563
0.005666666666666667,0.004013202380696374
0.0057083333333333335,0.004024594403645239
0.00575,0.00403588419798402
0.005791666666666666,0.00404707171353482
0.005833333333333334,0.004058156907121217
0.005875,0.004069139742642626
0.005916666666666666,0.004080020191149044
0.005958333333333334,0.004090798230915639
0.006,0.004101473847517466
0.0060416666666666665,0.0041120470339044805
0.006083333333333333,0.004122517790476632
0.006125,0.004132886125158915
0.006166666666666667,0.004143152053476381
0.006208333333333333,0.004153315598628965
0.00625,0.004163376791565495
0.006291666666666667,0.004173335671055901
0.006333333333333333,0.004183192283760723
0.006375,0.004192946684297383
0.006416666666666667,0.004202598935302867
0.006458333333333333,0.004212149107492448
0.0065,0.004221597279714167
0.006541666666666667,0.004230943538998924
0.006583333333333333,0.0042401879806061495
0.006625,0.004249330708065126
0.006666666666666667,0.004258371833212129
0.0067083333333333335,0.004267311476223669
0.00675,0.00427614976564596
0.006791666666666666,0.004284886838420553
0.006833333333333334,0.004293522839905854
0.006875,0.004302057923894077
0.0069166666666666664,0.004310492252622923
0.006958333333333334,0.004318825996781181
0.007,0.0043270593355080305
0.0070416666666666666,0.004335192456386559
0.007083333333333333,0.004343225555432029
0.007125,0.004351158837074933
0.007166666666666667,0.0043589925141386465
0.007208333333333333,0.004366726807811561
0.00725,0.004374361947613375
0.007291666666666667,0.004381898171355259
0.007333333333333333,0.004389335725093602
0.007375,0.004396674863077206
0.007416666666666667,0.00440391584768798
0.007458333333333333,0.0044110589493752
0.0075,0.0044181044465829555
0.007541666666666667,0.004425052625669985
0.007583333333333333,0.004431903780821222
0.007625,0.004438658213950753
0.007666666666666666,0.004445316234596132
0.0077083333333333335,0.004451878159804154
0.00775,0.004458344314008299
0.007791666666666666,0.004464715028898626
0.007833333333333333,0.004470990643285408
0.007875,0.004477171502957584
0.007916666666666667,0.004483257960536527
0.007958333333333333,0.004489250375325704
0.008,0.004495149113157088
0.008041666666666667,0.004500954546235069
0.008083333333333333,0.004506667052978359
0.008125,0.0045122870178601554
0.008166666666666666,0.004517814831246209
0.008208333333333333,0.004523250889229867
0.00825,0.004528595593463021
0.008291666666666666,0.004533849350982339
0.008333333333333333,0.004539012574031037
0.008375,0.004544085679877056
0.008416666666666666,0.004549069090628258
0.008458333333333333,0.004553963233044822
0.0085,0.004558768538349126
0.008541666666666666,0.0045634854420337195
0.008583333333333333,0.004568114383667794
0.008625,0.004572655806702026
0.008666666666666666,0.004577110158271419
0.008708333333333334,0.004581477888996304
0.00875,0.004585759452782328
0.008791666666666666,0.004589955306620261
0.008833333333333334,0.004594065910385688
0.008875,0.004598091726638231
0.008916666666666666,0.004602033220420108
0.008958333333333334,0.004605890859054397
0.009,0.004609665111943831
0.009041666666666667,0.004613356450370919
0.009083333333333334,0.0046169653472995864
0.009125,0.004620492277178153
0.009166666666666667,0.00462393771574376
0.009208333333333334,0.0046273021398287
0.00925,0.004630586027169343
0.009291666666666667,0.00463378985621814
0.009333333333333334,0.004636914105958419
0.009375,0.004639959255721373
0.009416666666666667,0.004642925785005265
0.009458333333333332,0.0046458141732976495
0.0095,0.004648624899901574
0.009541666666666667,0.004651358443766583
0.009583333333333333,0.004654015283325077
0.009625,0.004656595896334082
0.009666666666666667,0.004659100759722449
0.009708333333333333,0.004661530349444177
0.00975,0.004663885140339008
0.009791666666666667,0.0046661656060008865
0.009833333333333333,0.004668372218653691
0.009875,0.004670505449032554
0.009916666666666667,0.004672565766268865
0.009958333333333333,0.004674553637777689
0.01,0.004676469529147229
0.010041666666666667,0.004678313904030346
0.010083333333333333,0.004680087224038425
0.010125,0.004681789948638483
0.010166666666666666,0.004683422535055257
0.010208333333333333,0.004684985438179805
0.01025,0.0046864791104851995
0.010291666666666666,0.004687904001949342
0.010333333333333333,0.004689260559985503
0.010375,0.00469054922938187
0.010416666666666666,0.004691770452251324
0.010458333333333333,0.004692924667992056
0.0105,0.004694012313259257
0.010541666666666666,0.0046950338219480785
0.010583333333333333,0.004695989625187607
0.010625,0.0046968801513450785
0.010666666666666666,0.004697705826039692
0.010708333333333334,0.00469846707216588
0.01075,0.004699164309925953
0.010791666666666666,0.004699797956871613
0.010833333333333334,0.004700368427953345
0.010875,0.004700876135576428
0.010916666666666667,0.0047013214896622635
0.010958333333333334,0.004701704897714053
0.011,0.0047020267648860995
0.011041666666666667,0.004702287494056223
0.011083333333333334,0.004702487485901128
0.011125,0.004702627138974568
0.011166666666666667,0.0047027068497880005
0.011208333333333334,0.004702727012893153
0.01125,0.004702688020965844
0.011291666666666667,0.004702590264890614
0.011333333333333334,0.004702434133846205
0.011375,0.004702220015392467
0.011416666666666667,0.004701948295559262
0.011458333333333333,0.004701619358937486
0.0115,0.004701233588772064
0.011541666666666667,0.0047007913670566275
0.011583333333333333,0.004700293074629348
0.011625,0.004699739091269248
0.011666666666666667,0.004699129795792185
0.011708333333333333,0.004698465566145674
0.01175,0.004697746779501955
0.011791666666666667,0.004696973812349206
0.011833333333333333,0.00469614704058107
0.011875,0.004695266839584596
0.011916666666666667,0.0046943335843265925
0.011958333333333333,0.004693347649438201
0.012,0.0046923094092973325
0.012041666666666668,0.00469121923810831
0.012083333333333333,0.0046900775099781135
0.012125,0.0046888845989891065
0.012166666666666666,0.004687640879268292
0.012208333333333333,0.004686346725052606
0.01225,0.004685002510748918
0.012291666666666666,0.004683608610987115
0.012333333333333333,0.004682165400664983
0.012375,0.0046806732549843294
0.012416666666666666,0.004679132549478188
0.012458333333333333,0.00467754366002922
0.0125,0.004675906962879976
0.012541666666666666,0.004674222834636318
0.012583333333333334,0.0046724916522651655
0.012625,0.004670713793087035
0.012666666666666666,0.004668889634763702
0.012708333333333334,0.004667019555281908
0.01275,0.004665103932934551
0.012791666666666666,0.004663143146300475
0.012833333333333334,0.004661137574222687
0.012875,0.0046590875957838096
0.012916666666666667,0.00465699359027747
0.012958333333333334,0.004654855937175052
0.013,0.004652675016088138
0.013041666666666667,0.004650451206727465
0.013083333333333334,0.004648184888859017
0.013125,0.0046458764422572735
0.013166666666666667,0.004643526246655343
0.013208333333333334,0.004641134681691768
0.01325,0.0046387021268538605
0.013291666666666667,0.004636228961417249
0.013333333333333334,0.004633715564381139
0.013375,0.00463116231439907
0.013416666666666667,0.004628569589705564
0.013458333333333333,0.00462593776803932
0.0135,0.004623267226563118
0.013541666666666667,0.004620558341780132
0.013583333333333333,0.004617811489446311
0.013625,0.004615027044478823
0.013666666666666667,0.004612205380860961
0.013708333333333333,0.004609346871543809
0.01375,0.004606451888344632
0.013791666666666667,0.004603520801841841
0.013833333333333333,0.004600553981266659
0.013875,0.004597551794392063
0.013916666666666667,0.00459451460741963
0.013958333333333333,0.004591442784864712
0.014,0.004588336689439822
0.014041666666666666,0.004585196681936012
0.014083333333333333,0.00458202312110213
0.014125,0.004578816363522147
0.014166666666666666,0.004575576763490847
0.014208333333333333,0.004572304672888227
0.01425,0.004569000441052821
0.014291666666666666,0.004565664414654193
0.014333333333333333,0.004562296937565089
0.014375,0.0045588983507339415
0.014416666666666666,0.004555468992058057
0.014458333333333333,0.004552009196257565
0.0145,0.004548519294750398
0.014541666666666666,0.004544999615528939
0.014583333333333334,0.004541450483038775
0.014625,0.004537872218059434
0.014666666666666666,0.004534265137586699
0.014708333333333334,0.004530629554716232
0.01475,0.004526965778528155
0.014791666666666667,0.004523274113972014
0.014833333333333334,0.004519554861751781
0.014875,0.0045158083182108835
0.014916666666666667,0.004512034775217472
0.014958333333333334,0.00450823452005058
0.015,0.004504407835288632
0.015041666666666667,0.0045005549987021725
0.015083333333333334,0.004496676283152222
0.015125,0.0044927719564950685
0.015166666666666667,0.004488842281494039
0.015208333333333334,0.004484887515738937
0.01525,0.004480907911573925
0.015291666666666667,0.004476903716034255
0.015333333333333332,0.004472875170791332
0.015375,0.004468822512104926
0.015416666666666667,0.004464745970781403
0.015458333333333333,0.0044606457721372604
0.0155,0.0044565221359678
0.015541666666666667,0.004452375276521417
0.015583333333333333,0.004448205402480239
0.015625,0.004444012716947411
0.015666666666666666,0.004439797417440734
0.015708333333333335,0.00443555969589233
0.01575,0.004431299738654399
0.015791666666666666,0.0044270177265114405
0.015833333333333335,0.004422713834699506
0.015875,0.004418388232933032
0.015916666666666666,0.004414041085439702
0.015958333333333335,0.00440967255100363
0.016,0.004405282783017118
0.016041666666666666,0.004400871929541394
0.016083333333333335,0.004396440133376826
0.016125,0.004391987532142647
0.016166666666666666,0.0043875142583652445
0.016208333333333335,0.004383020439573581
0.01625,0.004378506198400666
0.016291666666666666,0.004373971652690712
0.01633333333333333,0.004369416915612185
0.016375,0.0043648420957767275
0.016416666666666666,0.004360247297363411
0.016458333333333332,0.004355632620247394
0.0165,0.004350998160132289
0.016541666666666666,0.004346344008685786
0.016583333333333332,0.00434167025367816
0.016625,0.004336976979123394
0.016666666666666666,0.0043322642654225986
0.016708333333333332,0.004327532189509371
0.01675,0.004322780824996689
0.016791666666666667,0.004318010242324867
0.016833333333333332,0.0043132205089100465
0.016875,0.004308411689292725
0.016916666666666667,0.004303583845285889
0.016958333333333332,0.004298737036122364
0.017,0.0042938713186009714
0.017041666666666667,0.0042889867472307745
0.017083333333333332,0.004284083374372442
0.017125,0.004279161250375636
0.017166666666666667,0.004274220423711493
0.017208333333333332,0.0042692609410997055
0.01725,0.004264282847630274
0.017291666666666667,0.004259286186880537
0.017333333333333333,0.004254271001028372
0.017375,0.004249237330962394
0.017416666666666667,0.004244185216389547
0.017458333333333333,0.0042391146959398895
0.0175,0.004234025807268041
0.017541666666666667,0.004228918587150818
0.017583333333333333,0.0042237930715811525
0.017625,0.004218649295859028
0.017666666666666667,0.004213487294680217
0.017708333333333333,0.004208307102222937
0.01775,0.004203108752231771
0.017791666666666667,0.00419789227809774
0.017833333333333333,0.0041926577129336165
0.017875,0.0041874050896441245
0.017916666666666668,0.004182134440991062
0.017958333333333333,0.004176845799653625
0.018,0.0041715391982842425
0.018041666666666668,0.0041662146695599115
0.018083333333333333,0.00416087224622882
0.018125,0.004155511961152433
0.018166666666666668,0.004150133847343668
0.018208333333333333,0.004144737938001745
0.01825,0.004139324266543878
0.018291666666666668,0.004133892866633452
0.018333333333333333,0.004128443772203995
0.018375,0.004122977017478486
0.018416666666666668,0.004117492636984072
0.018458333333333334,0.004111990665562752
0.0185,0.004106471138378609
0.018541666666666668,0.004100934090921632
0.018583333333333334,0.004095379559007502
0.018625,0.004089807578772643
0.018666666666666668,0.004084218186664224
0.018708333333333334,0.004078611419425438
0.01875,0.004072987314076663
0.01879166666666667,0.0040673459078930906
0.018833333333333334,0.004061687238378899
0.018875,0.004056011343237684
0.018916666666666665,0.004050318260338767
0.018958333333333334,0.004044608027678903
0.019,0.004038880683338967
0.019041666666666665,0.004033136265435416
0.019083333333333334,0.0040273748120666026
0.019125,0.004021596361254302
0.019166666666666665,0.004015800950880981
0.019208333333333334,0.004009988618623317
0.01925,0.00400415940188249
0.019291666666666665,0.0039983133377115175
0.019333333333333334,0.003992450462739589
0.019375,0.0039865708130930235
0.019416666666666665,0.003980674424312731
0.019458333333333334,0.003974761331268276
0.0195,0.003968831568068602
0.019541666666666666,0.003962885167969125
0.019583333333333335,0.003956922163274872
0.019625,0.003950942585239275
0.019666666666666666,0.003944946463958239
0.019708333333333335,0.003938933828259206
0.01975,0.003932904705585536
0.019791666666666666,0.0039268591218774174
0.019833333333333335,0.003920797101451082
0.019875,0.0039147186668780165
0.019916666666666666,0.003908623838865428
0.019958333333333335,0.0039025126361386555
0.02,0.003896385075325899
0.020041666666666666,0.003890241170845753
0.020083333333333335,0.0038840809347985695
0.020125,0.0038779043768627816
0.020166666666666666,0.0038717115041968925
0.02020833333333333,0.003865502321347255
0.02025,0.003859276830161338
0.020291666666666666,0.0038530350297060517
0.02033333333333333,0.00384677691619084
0.020375,0.0038405024828955616
0.020416666666666666,0.003834211720103426
0.020458333333333332,0.003827904615039442
0.0205,0.0038215811518147284
0.020541666666666666,0.0038152413113768753
0.020583333333333332,0.0038088850714667857
0.020625,0.0038025124065825967
0.020666666666666667,0.003796123287951025
0.020708333333333332,0.0037897176835057778
0.02075,0.0037832955578720293
0.020791666666666667,0.003776856872355813
0.020833333333333332,0.0037704015849375494
0.020875,0.0037639296502697517
0.020916666666666667,0.003757441019679463
0.020958333333333332,0.0037509356411760206
0.021,0.003744413459464685
0.021041666666666667,0.003737874415966718
0.021083333333333332,0.003731318448846195
0.021125,0.0037247454930435927
0.021166666666666667,0.0037181554803166123
0.021208333333333333,0.0037115483392892354
0.02125,0.003704923995509763
0.021291666666666667,0.0036982823715177573
0.021333333333333333,0.003691623386919423
0.021375,0.0036849469584712856
0.021416666666666667,0.00367825300017236
0.021458333333333333,0.0036715414233647616
0.0215,0.00366481213684243
0.021541666666666667,0.003658065046967699
0.021583333333333333,0.0036513000577954326
0.021625,0.0036445170712042503
0.021666666666666667,0.0036377159870341425
0.021708333333333333,0.0036308967032296483
0.02175,0.0036240591159877743
0.021791666666666668,0.003617203119910113
0.021833333333333333,0.0036103286081586045
0.021875,0.0036034354726140003
0.021916666666666668,0.0035965236040356304
0.021958333333333333,0.0035895928922211246
0.022,0.0035826432261650792
0.022041666666666668,0.003575674494215997
0.022083333333333333,0.003568686584230898
0.022125,0.003561679383727214
0.022166666666666668,0.0035546527800324264
0.022208333333333333,0.0035476066604328317
0.02225,0.0035405409123227096
0.022291666666666668,0.003533455423354282
0.022333333333333334,0.0035263500815881066
0.022375,0.003519224775643167
0.022416666666666668,0.0035120793948461722
0.022458333333333334,0.003504913829380155
0.0225,0.0034977279704328404
0.022541666666666668,0.0034905217103448983
0.022583333333333334,0.0034832949427576246
0.022625,0.003476047562759287
0.02266666666666667,0.0034687794670294203
0.022708333333333334,0.003461490553980667
0.02275,0.0034541807238979206
0.022791666666666665,0.0034468498790744535
0.022833333333333334,0.0034394979239446197
0.022875,0.003432124765212715
0.022916666666666665,0.0034247303119779066
0.022958333333333334,0.003417314475855573
0.023,0.003409877171095485
0.023041666666666665,0.003402418314696924
0.023083333333333334,0.003394937826520595
0.023125,0.003387435629396951
0.023166666666666665,0.003379911649230227
0.023208333333333334,0.003372365815097605
0.02325,0.0033647980593435618
0.023291666666666665,0.0033572083176698223
0.023333333333333334,0.0033495965292211845
0.023375,0.0033419626366671027
0.023416666666666665,0.0033343065862786463
0.023458333333333335,0.003326628328000482
0.0235,0.003318927815517794
0.023541666666666666,0.0033112050063184156
0.023583333333333335,0.0033034598617507726
0.023625,0.0032956923470780445
0.023666666666666666,0.0032879024315282473
0.023708333333333335,0.0032800900883394233
0.02375,0.0032722552947990887
0.023791666666666666,0.003264398032277449
0.023833333333333335,0.003256518286254365
0.023875,0.0032486160463404
0.023916666666666666,0.003240691306292106
0.023958333333333335,0.0032327440640214254
0.024,0.0032247743215993835
0.024041666666666666,0.00321678208525466
0.024083333333333335,0.003208767365367541
0.024125,0.0032007301764593516
0.024166666666666666,0.0031926705371771147
0.02420833333333333,0.003184588470273126
0.02425,0.0031764840025794976
0.024291666666666666,0.00316835716497787
0.024333333333333332,0.0031602079923640325
0.024375,0.0031520365236064234
0.024416666666666666,0.003143842801497001
0.024458333333333332,0.0031356268726932326
0.0245,0.0031273887876507043
0.024541666666666666,0.003119128600546447
0.024583333333333332,0.003110846369193359
0.024625,0.0031025421549463156
0.024666666666666667,0.003094216022600835
0.024708333333333332,0.0030858680402855655
0.02475,0.0030774982793500714
0.024791666666666667,0.003069106814248999
0.024833333333333332,0.0030606937224229567
0.024875,0.003052259084176452
0.024916666666666667,0.0030438029825540403
0.024958333333333332,0.0030353255032163975
0.025,0.003026826734317413
0.025041666666666667,0.003018306766381826
0.025083333333333332,0.003009765692181983
0.025125,0.003001203606612832
0.025166666666666667,0.0029926206065654477
0.025208333333333333,0.0029840167907998383
0.02525,0.0029753922598175784
0.025291666666666667,0.002966747115734501
0.025333333333333333,0.00295808146215368
0.025375,0.0029493954040391425
0.025416666666666667,0.00294068904759101
0.025458333333333333,0.002931962500122856
0.0255,0.0029232158699420813
0.025541666666666667,0.0029144492662338943
0.025583333333333333,0.002905662798948908
0.025625,0.002896856578693903
0.025666666666666667,0.0028880307166254697
0.025708333333333333,0.002879185324346786
0.02575,0.0028703205138081826
0.025791666666666668,0.002861436397212136
0.025833333333333333,0.0028525330869227823
0.025875,0.0028436106953797368
0.025916666666666668,0.0028346693350164115
0.025958333333333333,0.00282570911818366
0.026,0.002816730157079784
0.026041666666666668,0.0028077325636875713
0.026083333333333333,0.002798716449718311
0.026125,0.002789681926562218
0.026166666666666668,0.002780629105244918
0.026208333333333333,0.002771558096390122
0.02625,0.0027624690101887396
0.026291666666666668,0.0027533619563743527
0.026333333333333334,0.0027442370442046595
0.026375,0.002735094382448337
0.026416666666666668,0.0027259340793772315
0.026458333333333334,0.0027167562427645718
0.0265,0.002707560979890046
0.02654166666666667,0.0026983483975520557
0.026583333333333334,0.002689118602087315
0.026625,0.002679871699398367
0.02666666666666667,0.002670607794989589
0.026708333333333334,0.0026613269940119317
0.02675,0.0026520294013165336
0.026791666666666665,0.0026427151215170286
0.026833333333333334,0.0026333842590593346
0.026875,0.002624036918296965
0.026916666666666665,0.0026146732035701517
0.026958333333333334,0.0026052932192876755
0.027,0.0025958970700106906
0.027041666666666665,0.002586484860537965
0.027083333333333334,0.002577056695992024
0.027125,0.0025676126819061513
0.027166666666666665,0.002558152924313065
0.027208333333333334,0.0025486775298365636
0.02725,0.0025391866057873605
0.027291666666666665,0.002529680260263859
0.027333333333333334,0.0025201586022580054
0.027375,0.0025106217417660264
0.027416666666666666,0.0025010697899038653
0.027458333333333335,0.0024915028590268315
0.0275,0.002481921062852553
0.027541666666666666,0.0024723245165863975
0.027583333333333335,0.0024627133370489973
0.027625,0.0024530876428056343
0.027666666666666666,0.0024434475542969144
0.027708333333333335,0.002433793193969698
0.02775,0.0024241246864072975
0.027791666666666666,0.002414442158458432
0.027833333333333335,0.002404745739364803
0.027875,0.00239503556088746
0.027916666666666666,0.002385311757432461
0.027958333333333335,0.0023755744661763493
0.028,0.0023658238271912877
0.028041666666666666,0.002356059983569122
0.02808333333333333,0.002346283081543561
0.028125,0.002336493270609977
0.028166666666666666,0.0023266907036426578
0.028208333333333332,0.002316875537009217
0.02825,0.002307047930681296
0.028291666666666666,0.0022972080483406074
0.028333333333333332,0.0022873560574801512
0.028375,0.002277492129501187
0.028416666666666666,0.0022676164398064895
0.028458333333333332,0.0022577291678897117
0.0285,0.0022478304974200814
0.028541666666666667,0.0022379206163215763
0.028583333333333332,0.0022279997168460548
0.028625,0.0022180679956400563
0.028666666666666667,0.00220812565380534
0.028708333333333332,0.0021981728969536203
0.02875,0.0021882099352559807
0.028791666666666667,0.0021782369834869096
0.028833333333333332,0.002168254261062248
0.028875,0.0021582619920700484
0.028916666666666667,0.002148260405293868
0.028958333333333332,0.0021382497342289767
0.029,0.0021282302170923676
0.029041666666666667,0.0021182020968271093
0.029083333333333333,0.0021081656211012142
0.029125,0.0020981210423009207
0.029166666666666667,0.002088068617518015
0.029208333333333333,0.0020780086085309445
0.02925,0.002067941281779652
0.029291666666666667,0.0020578669083338133
0.029333333333333333,0.0020477857638537275
0.029375,0.002037698128543097
0.029416666666666667,0.0020276042870931935
0.029458333333333333,0.0020175045286181274
0.0295,0.0020073991465811565
0.029541666666666667,0.0019972884387122816
0.029583333333333333,0.001987172706917898
0.029625,0.0019770522571837335
0.029666666666666668,0.0019669273994723214
0.029708333333333333,0.0019567984476159973
0.02975,0.001946665719206486
0.029791666666666668,0.0019365295354819522
0.029833333333333333,0.0019263902212114156
0.029875,0.0019162481045755509
0.029916666666666668,0.0019061035170428481
0.029958333333333333,0.0018959567932405027
0.03,0.0018858082708199267
0.030041666666666668,0.0018756582903173256
0.030083333333333333,0.0018655071950099678
0.030125,0.001855355330768611
0.030166666666666668,0.001845203045906226
0.030208333333333334,0.001835050691022735
0.03025,0.0018248986188454089
0.030291666666666668,0.0018147471840651232
0.030333333333333334,0.0018045967431692918
0.030375,0.0017944476542724565
0.030416666666666668,0.0017843002769454292
0.030458333333333334,0.001774154972043484
0.0305,0.0017640121015334931
0.03054166666666667,0.0017538720283198285
0.030583333333333334,0.0017437351160693013
0.030625,0.0017336017290357625
0.030666666666666665,0.0017234722318850027
0.030708333333333334,0.0017133469895205724
0.03075,0.0017032263669111303
0.030791666666666665,0.001693110728919816
0.030833333333333334,0.001683000440135826
0.030875,0.0016728958647079665
0.030916666666666665,0.0016627973661798216
0.030958333333333334,0.001652705307326325
0.031,0.0016426200499916543
0.031041666666666665,0.0016325419549285888
0.031083333333333334,0.0016224713816398732
0.031125,0.0016124086882224992
0.031166666666666665,0.0016023542312160058
0.031208333333333334,0.0015923083654558927
0.03125,0.0015822714439326898
0.03129166666666667,0.0015722438176563511
0.03133333333333333,0.0015622258355250625
0.031375,0.0015522178441976925
0.03141666666666667,0.0015422201879698246
0.03145833333333333,0.0015322332086542953
0.0315,0.001522257245467866
0.03154166666666667,0.0015122926349257259
0.03158333333333333,0.0015023397107450731
0.031625,0.001492398803758279
0.03166666666666667,0.0014824702418353682
0.03170833333333333,0.0014725543498151589
0.03175,0.0014626514494444532
0.03179166666666667,0.0014527618593246903
0.03183333333333333,0.001442885894864972
0.031875,0.0014330238682397928
0.03191666666666667,0.0014231760883500202
0.03195833333333333,0.0014133428607865743
0.032,0.0014035244877973628
0.03204166666666667,0.0013937212682588172
0.03208333333333333,0.0013839334976536064
0.032125,0.001374161468055906
0.03216666666666667,0.00136440546812534
0.03220833333333333,0.0013546657831105156
0.03225,0.0013449426948631774
0.03229166666666667,0.0013352364818640919
0.03233333333333333,0.0013255474192606627
0.032375,0.0013158757789146242
0.03241666666666667,0.0013062218294577809
0.03245833333333333,0.0012965858363545477
0.0325,0.0012869680619706201
0.03254166666666667,0.0012773687656472512
0.03258333333333333,0.0012677882037807826
0.032625,0.0012582266299072111
0.03266666666666666,0.0012486842947913713
0.03270833333333333,0.0012391614465197805
0.03275,0.0012296583305958636
0.03279166666666666,0.0012201751900367168
0.03283333333333333,0.001210712265471174
0.032875,0.0012012697952390058
0.032916666666666664,0.0011918480154910465
0.03295833333333333,0.001182447160290373
0.033,0.0011730674617148244
0.033041666666666664,0.0011637091499608085
0.03308333333333333,0.001154372453447861
0.033125,0.0011450575989234288
0.033166666666666664,0.0011357648115679195
0.03320833333333333,0.0011264943151005054
0.03325,0.0011172463318859668
0.033291666666666664,0.0011080210830422853
0.03333333333333333,0.0010988187885483769
0.033375,0.0010896396673514654
0.033416666666666664,0.0010804839374738465
0.03345833333333333,0.0010713518161188159
0.0335,0.0010622435197752962
0.033541666666666664,0.001053159264320576
0.03358333333333333,0.00104409926512088
0.033625,0.001035063737129802
0.033666666666666664,0.0010260528949846493
0.03370833333333333,0.0010170669531006878
0.03375,0.00100810612576315
0.033791666666666664,0.0009991706272166308
0.03383333333333333,0.0009902606717511657
0.033875,0.0009813764737837964
0.033916666666666664,0.0009725182479341522
0.03395833333333333,0.0009636862090931615
0.034,0.0009548805724851464
0.034041666666666665,0.0009461015537242238
0.034083333333333334,0.000937349368865906
0.034125,0.0009286242344545093
0.034166666666666665,0.0009199263675664749
0.034208333333333334,0.0009112559858489189
0.03425,0.0009026133075522938
0.034291666666666665,0.0008939985515564264
0.034333333333333334,0.0008854119373897963
0.034375,0.0008768536852419109
0.034416666666666665,0.0008683240159680325
0.034458333333333334,0.0008598231510851924
0.0345,0.0008513513127588279
0.034541666666666665,0.0008429087237800631
0.034583333333333334,0.000834495607534323
0.034625,0.0008261121879624784
0.034666666666666665,0.0008177586895158867
0.034708333333333334,0.0008094353371064568
0.03475,0.0008011423560523733
0.034791666666666665,0.0007928799720198803
0.034833333333333334,0.0007846484109617494
0.034875,0.0007764478990529203
0.034916666666666665,0.0007682786626230019
0.034958333333333334,0.0007601409280848082
0.035,0.0007520349218584063
0.035041666666666665,0.0007439608702906043
0.035083333333333334,0.0007359189995701003
0.035125,0.0007279095356387486
0.035166666666666666,0.000719932704099251
0.035208333333333335,0.000711988730118946
0.03525,0.0007040778383288955
0.035291666666666666,0.0006962002527177848
0.035333333333333335,0.0006883561965212058
0.035375,0.0006805458921077559
0.035416666666666666,0.00067276956086314
0.035458333333333335,0.0006650274230723344
0.0355,0.0006573196977989674
0.035541666666666666,0.0006496466027609184
0.035583333333333335,0.0006420083542014842
0.035625,0.0006344051667560259
0.035666666666666666,0.0006268372533144381
0.035708333333333335,0.0006193048248797852
0.03575,0.0006118080904233465
0.035791666666666666,0.0006043472567366416
0.035833333333333335,0.0005969225282812972
0.035875,0.0005895341070373654
0.035916666666666666,0.0005821821923503495
0.035958333333333335,0.0005748669807771589
0.036,0.0005675886659314546
0.036041666666666666,0.0005603474383291523
0.036083333333333335,0.0005531434852349179
0.036125,0.0005459769905101718
0.036166666666666666,0.0005388481344626332
0.036208333333333335,0.0005317570936971402
0.03625,0.0005247040409675759
0.036291666666666667,0.0005176891450301968
0.036333333333333336,0.0005107125704989805
0.036375,0.00050377447770342
0.03641666666666667,0.0004968750225488926
0.036458333333333336,0.0004900143563795107
0.0365,0.00048319262584320475
0.03654166666666667,0.00047640997275915135
0.036583333333333336,0.00046966653398865916
0.036625,0.000462962441311149
0.03666666666666667,0.0004562978213065675
0.036708333333333336,0.0004496727952450077
0.03675,0.00044308747898371965
0.03679166666666667,0.00043654198287131226
0.036833333333333336,0.0004300364116591011
0.036875,0.0004235708644197316
0.03691666666666667,0.0004171454344727136
0.036958333333333336,0.00041076020931563083
0.037,0.000404415270559317
0.03704166666666667,0.00039811069386554024
0.037083333333333336,0.00039184654888675956
0.037125,0.0003856228992089941
0.03716666666666667,0.0003794398022999311
0.037208333333333336,0.00037329730946428685
0.03725,0.0003671954658075754
0.03729166666666667,0.00036113431020872453
0.037333333333333336,0.00035511387530171154
0.037375,0.00034913418746655126
0.03741666666666667,0.0003431952668302851
0.03745833333333334,0.0003372971272783466
0.0375,0.0003314397764759883
0.03754166666666667,0.00032562321589947694
0.03758333333333334,0.0003198474408773427
0.037625,0.0003141124406418127
0.03766666666666667,0.00030841819838974937
0.03770833333333334,0.0003027646913520537
0.03775,0.000297151890870734
0.03779166666666667,0.00029157976248319923
0.03783333333333333,0.0002860482660136124
0.037875,0.00028055735567132753
0.03791666666666667,0.00027510698015658275
0.03795833333333333,0.0002696970827735192
0.038,0.0002643276015499111
0.03804166666666667,0.00025899846936226995
0.03808333333333333,0.000253709614065129
0.038125,0.0002484609586240271
0.03816666666666667,0.0002432524212521432
0.03820833333333333,0.00023808391555063025
0.03825,0.00023295535065265196
0.03829166666666667,0.00022786663137074178
0.03833333333333333,0.00022281765834660937
0.038375,0.000217808328202532
0.03841666666666667,0.00021283853369387243
0.03845833333333333,0.00020790816386248156
0.0385,0.00020301710419069383
0.03854166666666667,0.0001981652367555178
0.03858333333333333,0.0001933524403825717
0.038625,0.0001885785907994287
0.03866666666666667,0.00018384356078822754
0.03870833333333333,0.00017914722033743563
0.03875,0.00017448943679268135
0.03879166666666667,0.00016987007500675214
0.03883333333333333,0.00016528899748887945
0.038875,0.00016074606455326217
0.03891666666666667,0.00015624113446668887
0.03895833333333333,0.00015177406359508918
0.039,0.0001473447065486991
0.03904166666666667,0.00014295291632521754
0.03908333333333333,0.00013859854444997304
0.039125,0.00013428144111217943
0.03916666666666667,0.00013000145529699968
0.03920833333333333,0.0001257584349136921
0.03925,0.0001215522269203339
0.03929166666666667,0.00011738267744572633
0.03933333333333333,0.00011324963190873243
0.039375,0.00010915293513448249
0.03941666666666667,0.0001050924314666211
0.03945833333333333,0.00010106796487527412
0.0395,9.707937906068954e-05
0.03954166666666667,9.31265175521729e-05
0.03958333333333333,8.920922380130315e-05
0.039625,8.532734126786624e-05
0.03966666666666667,8.148071349707553e-05
0.03970833333333333,7.76691841877351e-05
0.03975,7.389259725235184e-05
0.03979166666666667,7.015079687079011e-05
0.03983333333333333,6.644362753857787e-05
0.039875,6.277093411005685e-05
0.03991666666666667,5.913256183612519e-05
0.03995833333333333,5.5528356396500095e-05
0.04,5.195816392675591e-05
0.04004166666666667,4.8421831040491945e-05
0.04008333333333333,4.491920484680492e-05
0.040125,4.145013296308277e-05
0.04016666666666667,3.801446352324491e-05
0.04020833333333333,3.4612045181728096e-05
0.04025,3.124272711335998e-05
0.04029166666666667,2.790635900889473e-05
0.04033333333333333,2.4602791065852342e-05
0.040375,2.1331873974466883e-05
0.04041666666666666,1.809345889879489e-05
0.04045833333333333,1.4887397453221805e-05
0.0405,1.1713541674566097e-05
0.04054166666666666,8.571743989838456e-06
0.04058333333333333,5.461857179898033e-06
0.040625,2.383734339421635e-06
0.04066666666666666,-6.627711668474087e-07
0.04070833333333333,-3.677805752145993e-06
0.04075,-6.66151566050782e-06
0.040791666666666664,-9.614047024587911e-06
0.04083333333333333,-1.2535545928864765e-05
0.040875,-1.5426158478591603e-05
0.040916666666666664,-1.8286030874399128e-05
0.04095833333333333,-2.111530949188041e-05
0.041,-2.391414096519198e-05
0.041041666666666664,-2.668267227397595e-05
0.04108333333333333,-2.9421050833612237e-05
0.041125,-3.212942458919745e-05
0.041166666666666664,-3.4807942113392054e-05
0.04120833333333333,-3.745675270778429e-05
0.04125,-4.007600650704295e-05
0.041291666666666664,-4.2665854585027525e-05
0.04133333333333333,-4.5226449062173396e-05
0.041375,-4.775794321369741e-05
0.041416666666666664,-5.0260491578390295e-05
0.04145833333333333,-5.273425006805754e-05
0.0415,-5.51793760778217e-05
0.041541666666666664,-5.759602859727064e-05
0.04158333333333333,-5.998436832200366e-05
0.041625,-6.234455776482921e-05
0.041666666666666664,-6.4676761365903e-05
0.04170833333333333,-6.698114560156566e-05
0.04175,-6.925787909215831e-05
0.041791666666666664,-7.150713270900552e-05
0.041833333333333333,-7.372907968005034e-05
0.041875,-7.59238956929562e-05
0.041916666666666665,-7.809175899429154e-05
0.041958333333333334,-8.023285048386038e-05
0.042,-8.234735380410817e-05
0.042041666666666665,-8.443545542507114e-05
0.042083333333333334,-8.64973447251622e-05
0.042125,-8.853321406764438e-05
0.042166666666666665,-9.054325887236929e-05
0.042208333333333334,-9.252767768255256e-05
0.04225,-9.44866722272428e-05
0.042291666666666665,-9.642044748093951e-05
0.042333333333333334,-9.832921172157145e-05
0.042375,-0.00010021317658705903
0.042416666666666665,-0.0001020725571297303
0.042458333333333334,-0.00010390757186713642
0.0425,-0.0001057184428275358
0.042541666666666665,-0.00010750539558866939
0.042583333333333334,-0.00010926865930916763
0.042625,-0.00011100846675259567
0.042666666666666665,-0.00011272505430438991
0.042708333333333334,-0.00011441866198163273
0.04275,-0.00011608953343516582
0.042791666666666665,-0.0001177379159434318
0.042833333333333334,-0.00011936406039752721
0.042875,-0.00012096822127689703
0.042916666666666665,-0.0001225506566151284
0.042958333333333334,-0.00012411162795577895
0.043,-0.00012565140029866277
0.043041666666666666,-0.000127170242036966
0.043083333333333335,-0.0001286684248852718
0.043125,-0.0001301462237983822
0.043166666666666666,-0.00013160391688052972
0.043208333333333335,-0.0001330417852842831
0.04325,-0.0001344601130987969
0.043291666666666666,-0.00013585918722803695
0.043333333333333335,-0.00013723929726054592
0.043375,-0.00013860073533263268
0.043416666666666666,-0.00013994379598634954
0.043458333333333335,-0.0001412687760226989
0.0435,-0.00014257597435003114
0.043541666666666666,-0.00014386569182773878
0.043583333333333335,-0.0001451382311056504
0.043625,-0.00014639389645983674
0.043666666666666666,-0.00014763299362565395
0.043708333333333335,-0.00014885582962840404
0.04375,-0.00015006271261146838
0.043791666666666666,-0.00015125395166198718
0.043833333333333335,-0.00015242985663472614
0.043875,-0.00015359073797479694
0.043916666666666666,-0.00015473690653938093
0.043958333333333335,-0.0001558686734182203
0.044,-0.000156986349752777
0.044041666666666666,-0.0001580902465545038
0.044083333333333335,-0.0001591806745230827
0.044125,-0.0001602579438652334
0.04416666666666667,-0.00016132236411404212
0.044208333333333336,-0.00016237424394843422
0.04425,-0.00016341389101254982
0.04429166666666667,-0.00016444161173516164
0.044333333333333336,-0.00016545771114977658
0.044375,-0.0001664624927164091
0.04441666666666667,-0.00016745625814611512
0.044458333333333336,-0.00016843930722944581
0.0445,-0.00016941193766986597
0.04454166666666667,-0.00017037444492261578
0.044583333333333336,-0.00017132712203869586
0.044625,-0.00017227025951298763
0.04466666666666667,-0.00017320414513546982
0.044708333333333336,-0.00017412906384544399
0.04475,-0.00017504529758981247
0.04479166666666667,-0.00017595312518660274
0.044833333333333336,-0.00017685282219441316
0.044875,-0.00017774466078810509
0.04491666666666667,-0.0001786289096410423
0.044958333333333336,-0.00017950583381447167
0.045,-0.0001803756946550566
0.04504166666666667,-0.00018123874970144818
0.045083333333333336,-0.00018209525259996504
0.045125,-0.00018294545302854166
0.04516666666666667,-0.0001837895966276891
0.045208333333333336,-0.00018462792493762782
0.04525,-0.00018546067534165578
0.04529166666666667,-0.0001862880810161963
0.04533333333333334,-0.0001871103708874936
0.045375,-0.00018792776959430393
0.04541666666666667,-0.0001887404974556278
0.04545833333333334,-0.00018954877044257822
0.0455,-0.00019035280015393505
0.04554166666666667,-0.00019115279379541226
0.04558333333333333,-0.00019194895416273602
0.045625,-0.00019274147962858882
0.04566666666666667,-0.00019353056413351553
0.04570833333333333,-0.0001943163971809518
0.04575,-0.0001950991638367281
0.04579166666666667,-0.0001958790447335196
0.04583333333333333,-0.00019665621608054562
0.045875,-0.0001974308496787022
0.04591666666666667,-0.00019820311294108887
0.04595833333333333,-0.00019897316891821413
0.046,-0.0001997411763269117
0.04604166666666667,-0.00020050728958332747
0.04608333333333333,-0.00020127165884299182
0.046125,-0.0002020344300524712
0.04616666666666667,-0.0002027957450147236
0.04620833333333333,-0.00020355574146600503
0.04625,-0.00020431455316083082
0.04629166666666667,-0.0002050723099631811
0.04633333333333333,-0.000205829137943369
0.046375,-0.00020658515947995893
0.04641666666666667,-0.00020734049336604081
0.04645833333333333,-0.00020809525491928
0.0465,-0.00020884955609533405
0.04654166666666667,-0.00020960350560455328
0.04658333333333333,-0.0002103572090319933
0.046625,-0.00021111076896029765
0.04666666666666667,-0.00021186428509458176
0.04670833333333333,-0.00021261785438863922
0.04675,-0.00021337157117221962
0.04679166666666667,-0.0002141255272793336
0.04683333333333333,-0.00021487981217756214
0.046875,-0.00021563451309836824
0.04691666666666667,-0.00021638971516851576
0.04695833333333333,-0.00021714550154271927
0.047,-0.00021790195353715863
0.04704166666666667,-0.00021865915076277667
0.04708333333333333,-0.00021941717125718987
0.047125,-0.0002201760916146823
0.04716666666666667,-0.00022093598711446608
0.04720833333333333,-0.00022169693184763927
0.04725,-0.00022245899884288072
0.04729166666666667,-0.00022322226019006798
0.04733333333333333,-0.0002239867871602639
0.047375,-0.0002247526503203651
0.04741666666666667,-0.00022551991964132683
0.04745833333333333,-0.0002262886646000667
0.0475,-0.00022705895427601631
0.04754166666666667,-0.00022783085744325257
0.04758333333333333,-0.00022860444265865
0.047625,-0.00022937977834606863
0.04766666666666667,-0.00023015693287649905
0.04770833333333333,-0.0002309359746446621
0.04775,-0.00023171697214331585
0.04779166666666667,-0.00023249999403638754
0.04783333333333333,-0.00023328510923111825
0.047875,-0.00023407238694841693
0.04791666666666667,-0.00023486189678977292
0.04795833333333333,-0.00023565370879872225
0.048,-0.00023644789351548
0.04804166666666667,-0.00023724452202436542
0.04808333333333333,-0.00023804366599403445
0.048125,-0.0002388453977101581
0.04816666666666667,-0.000239649790099756
0.04820833333333333,-0.00024045691674652364
0.04825,-0.00024126685189716356
0.04829166666666666,-0.0002420796704593667
0.04833333333333333,-0.0002428954479920087
0.048375,-0.000243714260687506
0.04841666666666666,-0.00024453618534599225
0.04845833333333333,-0.0002453612993413508
0.0485,-0.0002461896805795278
0.048541666666666664,-0.00024702140744946316
0.04858333333333333,-0.00024785655876669537
0.048625,-0.00024869521370962693
0.048666666666666664,-0.00024953745174845086
0.04870833333333333,-0.0002503833525666594
0.04875,-0.00025123299597497095
0.048791666666666664,-0.00025208646181781375
0.04883333333333333,-0.00025294382987331627
0.048875,-0.00025380517974824045
0.048916666666666664,-0.0002546705907687996
0.04895833333333333,-0.00025554014186751
0.049,-0.0002564139114659932
0.049041666666666664,-0.0002572919773538815
0.04908333333333333,-0.0002581744165644352
0.049125,-0.00025906130524785216
0.049166666666666664,-0.0002599527185430094
0.04920833333333333,-0.0002608487304476682
0.04925,-0.0002617494136869081
0.049291666666666664,-0.00026265483958000277
0.04933333333333333,-0.00026356507790648725
0.049375,-0.0002644801967723579
0.049416666666666664,-0.0002654002624772076
0.04945833333333333,-0.0002663253393828372
0.0495,-0.0002672554897836322
0.049541666666666664,-0.00026819077377867
0.04958333333333333,-0.00026913124914511554
0.049625,-0.00027007697121234076
0.049666666666666665,-0.0002710279927365315
0.049708333333333334,-0.00027198436377604934
0.04975,-0.00027294613156812915
0.049791666666666665,-0.0002739133404074327
0.049833333333333334,-0.00027488603152659195
0.049875,-0.0002758642429787279
0.049916666666666665,-0.00027684800952247146
0.049958333333333334,-0.000277837362510592
0.05,-0.00027883232978302745
0.050041666666666665,-0.00027983293556434023
0.050083333333333334,-0.00028083920036537323
0.050125,-0.0002818511408891879
0.050166666666666665,-0.0002828687699417108
0.050208333333333334,-0.00028389209634763
0.05025,-0.0002849211248717864
0.050291666666666665,-0.0002859558561458383
0.050333333333333334,-0.0002869962865998273
0.050375,-0.00028804240839851587
0.050416666666666665,-0.0002890942093828818
0.050458333333333334,-0.0002901516730178533
0.0505,-0.00029121477834777526
0.050541666666666665,-0.0002922834999608632
0.050583333333333334,-0.0002933578079633572
0.050625,-0.0002944376679633287
0.050666666666666665,-0.0002955230410630627
0.050708333333333334,-0.000296613883858329
0.05075,-0.0002977101484433262
0.050791666666666666,-0.00029881178242115473
0.050833333333333335,-0.00029991872892038145
0.050875,-0.0003010309266182056
0.050916666666666666,-0.0003021483097702003
0.050958333333333335,-0.000303270808246072
0.051,-0.00030439834757078454
0.051041666666666666,-0.0003055308489708203
0.051083333333333335,-0.00030666822942577066
0.051125,-0.00030781040172524313
0.051166666666666666,-0.0003089572745304596
0.051208333333333335,-0.00031010875243967667
0.05125,-0.00031126473605682997
0.051291666666666666,-0.00031242512206327113
0.051333333333333335,-0.00031358980329293225
0.051375,-0.0003147586688116006
0.051416666666666666,-0.00031593160400103835
0.051458333333333335,-0.00031710849064859063
0.0515,-0.0003182892070427486
0.051541666666666666,-0.0003194736280746788
0.051583333333333335,-0.00032066162534516364
0.051625,-0.0003218530672760636
0.051666666666666666,-0.0003230478192255016
0.051708333333333335,-0.00032424574360662785
0.05175,-0.0003254467000105863
0.051791666666666666,-0.0003266505453342108
0.051833333333333335,-0.00032785713391213705
0.051875,-0.0003290663176525765
0.051916666666666667,-0.0003302779461763674
0.051958333333333336,-0.00033149186695946223
0.052,-0.0003327079254792424
0.05204166666666667,-0.0003339259653648977
0.052083333333333336,-0.0003351458285517482
0.052125,-0.00033636735543905494
0.05216666666666667,-0.00033759038505047265
0.052208333333333336,-0.0003388147551959338
0.05225,-0.0003400403026337646
0.05229166666666667,-0.0003412668632321415
0.052333333333333336,-0.0003424942721292894
0.052375,-0.0003437223638920348
0.05241666666666667,-0.00034495097267251356
0.052458333333333336,-0.0003461799323630261
0.0525,-0.0003474090767492408
0.05254166666666667,-0.0003486382396619225
0.052583333333333336,-0.0003498672551270959
0.052625,-0.00035109595751450876
0.05266666666666667,-0.00035232418168439273
0.052708333333333336,-0.0003535517631324218
0.05275,-0.00035477853813249867
0.05279166666666667,-0.00035600434387690887
0.052833333333333336,-0.0003572290186134772
0.052875,-0.0003584524017795401
0.05291666666666667,-0.0003596743341326431
0.052958333333333336,-0.0003608946578777106
0.053,-0.0003621132167901256
0.05304166666666667,-0.0003633298563339634
0.05308333333333334,-0.00036454442377460933
0.053125,-0.00036575676828522934
0.05316666666666667,-0.000366966741047038
0.05320833333333334,-0.0003681741953438269
0.05325,-0.0003693789866515834
0.05329166666666667,-0.00037058097272415054
0.05333333333333334,-0.00037178001367570157
0.053375,-0.00037297597206044185
0.05341666666666667,-0.00037416871294964206
0.05345833333333333,-0.0003753581040057473
0.0535,-0.00037654401555261527
0.05354166666666667,-0.00037772632064028504
0.05358333333333333,-0.00037890489510289665
0.053625,-0.00038007961760938233
0.05366666666666667,-0.00038125036970723496
0.05370833333333333,-0.0003824170358595146
0.05375,-0.0003835795034747984
0.05379166666666667,-0.00038473766292932104
0.05383333333333333,-0.0003858914075801019
0.053875,-0.0003870406337678062
0.05391666666666667,-0.0003881852408087756
0.05395833333333333,-0.0003893251309765814
0.054,-0.000390460209473965
0.05404166666666667,-0.0003915903843961221
0.05408333333333333,-0.0003927155666861458
0.054125,-0.00039383567008327114
0.05416666666666667,-0.0003949506110645832
0.05420833333333333,-0.0003960603087808305
0.05425,-0.0003971646849866425
0.05429166666666667,-0.000398263663965058
0.05433333333333333,-0.00039935717244627783
0.054375,-0.00040044513952096025
0.05441666666666667,-0.0004015274965488331
0.05445833333333333,-0.000402604177063448
0.0545,-0.0004036751166735563
0.05454166666666667,-0.00040474025296125546
0.05458333333333333,-0.0004057995253769016
0.054625,-0.0004068528751306755
0.05466666666666667,-0.00040790024508076644
0.05470833333333333,-0.00040894157961848267
0.05475,-0.00040997682455093024
0.05479166666666667,-0.00041100592698197375
0.05483333333333333,-0.0004120288351920034
0.054875,-0.00041304549851670113
0.05491666666666667,-0.0004140558672247769
0.05495833333333333,-0.0004150598923947134
0.055,-0.00041605752579078537
0.05504166666666667,-0.0004170487197388649
0.05508333333333333,-0.0004180334270026837
0.055125,-0.0004190116006610506
0.05516666666666667,-0.00041998319398609246
0.05520833333333333,-0.0004209481603224352
0.05525,-0.0004219064529674721
0.05529166666666667,-0.0004228580250531125
0.05533333333333333,-0.00042380282942955166
0.055375,-0.0004247408185516027
0.05541666666666667,-0.00042567194436787304
0.05545833333333333,-0.0004265961582127992
0.0555,-0.00042751341070160415
0.05554166666666667,-0.00042842365162843496
0.05558333333333333,-0.00042932682986808154
0.055625,-0.0004302228932817568
0.05566666666666667,-0.0004311117886273079
0.05570833333333333,-0.00043199346147398097
0.05575,-0.0004328678561218042
0.05579166666666667,-0.0004337349155257043
0.05583333333333333,-0.0004345945812244511
0.055875,-0.0004354467932745868
0.05591666666666667,-0.0004362914901895733
0.05595833333333333,-0.0004371286088842981
0.056,-0.0004379580846250308
0.05604166666666666,-0.0004387798509849531
0.05608333333333333,-0.0004395938398053034
0.056125,-0.0004403999811620978
0.05616666666666666,-0.0004411982033383911
0.05620833333333333,-0.00044198843280191533
0.05625,-0.0004427705941877153
0.05629166666666666,-0.000443544610285284
0.05633333333333333,-0.00044431040202974636
0.056375,-0.00044506788849685384
0.056416666666666664,-0.000445816986901771
0.05645833333333333,-0.00044655761260160474
0.0565,-0.00044728967910155637
0.056541666666666664,-0.0004480130980646917
0.05658333333333333,-0.0004487277793253677
0.056625,-0.0004494336309061776
0.056666666666666664,-0.00045013055903829057
0.05670833333333333,-0.0004508184681855093
0.05675,-0.0004514972610728808
0.056791666666666664,-0.0004521668387207548
0.05683333333333333,-0.00045282710048482217
0.056875,-0.00045347794410232137
0.056916666666666664,-0.0004541192657445007
0.05695833333333333,-0.0004547509600754065
0.057,-0.00045537292031713967
0.057041666666666664,-0.0004559850383218975
0.05708333333333333,-0.0004565872046510704
0.057125,-0.0004571793086612936
0.057166666666666664,-0.0004577612385970191
0.05720833333333333,-0.00045833288168908534
0.05725,-0.0004588941242589259
0.057291666666666664,-0.00045944485182836857
0.05733333333333333,-0.00045998494923504883
0.057375,-0.0004605143007531909
0.057416666666666664,-0.0004610327902193946
0.057458333333333333,-0.0004615403011631274
0.0575,-0.0004620367169414319
0.057541666666666665,-0.0004625219208769843
0.057583333333333334,-0.00046299579639839385
0.057625,-0.00046345822718162923
0.057666666666666665,-0.0004639090972918269
0.057708333333333334,-0.0004643482913253085
0.05775,-0.0004647756945518874
0.057791666666666665,-0.00046519119305748395
0.057833333333333334,-0.0004655946738870143
0.057875,-0.00046598602518751564
0.057916666666666665,-0.000466365136351439
0.057958333333333334,-0.00046673189816000813
0.058,-0.00046708620292629655
0.058041666666666665,-0.0004674279446372739
0.058083333333333334,-0.0004677570190939409
0.058125,-0.000468073324048802
0.058166666666666665,-0.0004683767593399857
0.058208333333333334,-0.00046866722702132674
0.05825,-0.0004689446314878546
0.058291666666666665,-0.00046920887959632344
0.058333333333333334,-0.0004694598807805768
0.058375,-0.00046969754716156176
0.058416666666666665,-0.00046992179365165784
0.058458333333333334,-0.00047013253805283666
0.0585,-0.00047032970114819795
0.058541666666666665,-0.00047051320678666476
0.058583333333333334,-0.0004706829819610683
0.058625,-0.00047083895688023846
0.058666666666666666,-0.00047098106503567453
0.058708333333333335,-0.0004711092432630292
0.05875,-0.0004712234317982869
0.058791666666666666,-0.00047132357432815535
0.058833333333333335,-0.0004714096180341036
0.058875,-0.00047148151362987295
0.058916666666666666,-0.0004715392153924775
0.058958333333333335,-0.00047158268118634286
0.059,-0.0004716118724801362
0.059041666666666666,-0.00047162675435653595
0.059083333333333335,-0.0004716272955158198
0.059125,-0.00047161346827397446
0.059166666666666666,-0.0004715852485554226
0.059208333333333335,-0.00047154261588004963
0.05925,-0.0004714855533440529
0.059291666666666666,-0.00047141404759392427
0.059333333333333335,-0.0004713280887926105
0.059375,-0.0004712276705767359
0.059416666666666666,-0.00047111279000389096
0.059458333333333335,-0.00047098344748967825
0.0595,-0.0004708396467353346
0.059541666666666666,-0.00047068139464751077
0.059583333333333335,-0.00047050870125176435
0.059625,-0.0004703215796008892
0.059666666666666666,-0.00047012004567873237
0.059708333333333335,-0.0004699041182998177
0.05975,-0.0004696738190050304
0.05979166666666667,-0.0004694291719536504
0.059833333333333336,-0.00046917020381203266
0.059875,-0.00046889694363936744
0.05991666666666667,-0.0004686094227710944
0.059958333333333336,-0.0004683076747005037
0.06,-0.00046799173495901353
0.06004166666666667,-0.0004676616409956764
0.060083333333333336,-0.0004673174320564708
0.060125,-0.0004669591490637945
0.06016666666666667,-0.00046658683449624214
0.060208333333333336,-0.0004662005322683051
0.06025,-0.0004658002876094859
0.06029166666666667,-0.0004653861469426023
0.060333333333333336,-0.00046495815776138205
0.060375,-0.0004645163685076038
0.06041666666666667,-0.00046406082844807823
0.060458333333333336,-0.0004635915875516758
0.0605,-0.000463108696366626
0.06054166666666667,-0.00046261220589847074
0.060583333333333336,-0.00046210216748902074
0.060625,-0.0004615786326964863
0.06066666666666667,-0.00046104165317711323
0.060708333333333336,-0.0004604912805688771
0.06075,-0.00045992756637762476
0.06079166666666667,-0.00045935056186574314
0.060833333333333336,-0.00045876031794334055
0.060875,-0.0004581568850619119
0.06091666666666667,-0.00045754031311047655
0.06095833333333334,-0.00045691065131426276
0.061,-0.0004562679481361088
0.06104166666666667,-0.00045561225118089064
0.06108333333333334,-0.00045494360710348936
0.061125,-0.0004542620615208692
0.06116666666666667,-0.0004535676589287234
0.06120833333333333,-0.0004528604426229725
0.06125,-0.00045214045462617185
0.06129166666666667,-0.0004514077356188227
0.06133333333333333,-0.0004506623248758187
0.061375,-0.0004499042602084402
0.06141666666666667,-0.0004491335779122071
0.06145833333333333,-0.0004483503127207314
0.0615,-0.00044755449776550467
0.06154166666666667,-0.0004467461645414825
0.06158333333333333,-0.00044592534287860817
0.061625,-0.00044509206091955164
0.06166666666666667,-0.00044424634510342807
0.06170833333333333,-0.0004433882201547152
0.06175,-0.00044251770907662415
0.06179166666666667,-0.00044163483314852667
0.06183333333333333,-0.0004407396119274587
0.061875,-0.00043983206325421943
0.06191666666666667,-0.0004389122032650058
0.06195833333333333,-0.00043798004640954236
0.062,-0.0004370356054760942
0.06204166666666667,-0.00043607889162291033
0.06208333333333333,-0.0004351099144153898
0.062125,-0.00043412868186870927
0.06216666666666667,-0.0004331352004959563
0.06220833333333333,-0.00043212947536158816
0.06225,-0.0004311115101399041
0.06229166666666667,-0.00043008130717864473
0.06233333333333333,-0.0004290388675684321
0.062375,-0.00042798419121891826
0.06241666666666667,-0.0004269172769421456
0.06245833333333333,-0.00042583812254302195
0.0625,-0.00042474672491630053
0.06254166666666666,-0.000423643080149344
0.06258333333333334,-0.0004225271836303645
0.062625,-0.0004213990301622688
0.06266666666666666,-0.00042025861408214696
0.06270833333333334,-0.0004191059293861556
0.06275,-0.0004179409698596145
0.06279166666666666,-0.0004167637292123218
0.06283333333333334,-0.00041557420121891104
0.062875,-0.0004143723798637123
0.06291666666666666,-0.0004131582594894376
0.06295833333333334,-0.00041193183494909314
0.063,-0.00041069310176053344
0.06304166666666666,-0.000409442056262892
0.06308333333333334,-0.00040817869577399667
0.063125,-0.00040690301874802073
0.06316666666666666,-0.00040561502493282025
0.06320833333333334,-0.0004043147155265561
0.06325,-0.0004030020933334334
0.06329166666666666,-0.00040167716291849767
0.06333333333333334,-0.0004003399307611318
0.063375,-0.00039899040540652367
0.06341666666666666,-0.00039762859761430984
0.06345833333333334,-0.00039625452050377617
0.0635,-0.00039486818969528405
0.06354166666666666,-0.0003934696234478279
0.06358333333333334,-0.0003920588427926219
0.063625,-0.00039063587166244997
0.06366666666666666,-0.00038920073701640713
0.06370833333333334,-0.0003877534689596592
0.06375,-0.00038629410085803517
0.06379166666666666,-0.00038482266944743016
0.06383333333333334,-0.00038333921493787637
0.063875,-0.0003818437811118747
0.06391666666666666,-0.0003803364154163548
0.06395833333333334,-0.0003788171690474628
0.064,-0.00037728609702748886
0.06404166666666666,-0.0003757432582737327
0.06408333333333334,-0.00037418871565946844
0.064125,-0.0003726225360670977
0.06416666666666666,-0.0003710447904334617
0.06420833333333334,-0.00036945555378747994
0.06425,-0.0003678549052805714
0.06429166666666666,-0.00036624292821030194
0.06433333333333334,-0.0003646197100372703
0.064375,-0.0003629853423947106
0.06441666666666666,-0.00036133992109026083
0.06445833333333334,-0.0003596835460998133
0.0645,-0.00035801632155355934
0.06454166666666666,-0.00035633835571398213
0.06458333333333334,-0.0003546497609452624
0.064625,-0.0003529506536738045
0.06466666666666666,-0.00035124115434000407
0.06470833333333334,-0.0003495213873415959
0.06475,-0.00034779148096891304
0.06479166666666666,-0.0003460515673323023
0.06483333333333334,-0.0003443017822819226
0.064875,-0.00034254226532026477
0.06491666666666666,-0.0003407731595077863
0.06495833333333334,-0.0003389946113618038
0.065,-0.0003372067707484976
0.06504166666666666,-0.0003354097907679877
0.06508333333333334,-0.0003336038276328838
0.065125,-0.0003317890405411982
0.06516666666666666,-0.0003299655915447972
0.06520833333333333,-0.00032813364541444735
0.06525,-0.0003262933695021179
0.06529166666666666,-0.00032444493360081017
0.06533333333333333,-0.00032258850980192253
0.065375,-0.0003207242723501645
0.06541666666666666,-0.0003188523974963657
0.06545833333333333,-0.0003169730633489145
0.0655,-0.0003150864497247564
0.06554166666666666,-0.0003131927380008523
0.06558333333333333,-0.00031129211096667277
0.065625,-0.00030938475267778084
0.06566666666666666,-0.0003074708483102121
0.06570833333333333,-0.00030555058401529747
0.06575,-0.00030362414677467526
0.06579166666666666,-0.0003016917242556379
0.06583333333333333,-0.0002997535046674565
0.065875,-0.000297809676619301
0.06591666666666667,-0.0002958604289798374
0.06595833333333333,-0.00029390595073817906
0.066,-0.0002919464308657763
0.06604166666666667,-0.0002899820581788742
0.06608333333333333,-0.0002880130212014464
0.066125,-0.00028603950802885605
0.06616666666666667,-0.00028406170619260987
0.06620833333333333,-0.000282079802526661
0.06625,-0.0002800939830359095
0.06629166666666667,-0.0002781044327675691
0.06633333333333333,-0.00027611133568585883
0.066375,-0.0002741148745502383
0.06641666666666667,-0.0002721152307972572
0.06645833333333333,-0.0002701125844261347
0.0665,-0.00026810711388833774
0.06654166666666667,-0.00026609899598142254
0.06658333333333333,-0.0002640884057473204
0.066625,-0.00026207551637524694
0.06666666666666667,-0.00026006049910929453
0.06670833333333333,-0.0002580435231605994
0.06675,-0.00025602475562421146
0.06679166666666667,-0.0002540043614012831
0.06683333333333333,-0.0002519825031271733
0.066875,-0.0002499593411054017
0.06691666666666667,-0.0002479350332468125
0.06695833333333333,-0.00024590973501342024
0.067,-0.00024388359936699334
0.06704166666666667,-0.00024185677672290988
0.06708333333333333,-0.00023982941490985116
0.067125,-0.00023780165913569963
0.06716666666666667,-0.0002357736519597184
0.06720833333333333,-0.0002337455332705623
0.06725,-0.00023171744026919376
0.06729166666666667,-0.00022968950745599198
0.06733333333333333,-0.0002276618666221995
0.067375,-0.000225634646846658
0.06741666666666667,-0.00022360797449882182
0.06745833333333333,-0.00022158197324815144
0.0675,-0.00021955676407911523
0.06754166666666667,-0.000217532465311164
0.06758333333333333,-0.00021550919262380445
0.067625,-0.00021348705908720382
0.06766666666666667,-0.00021146617519832319
0.06770833333333333,-0.00020944664892195796
0.06775,-0.0002074285857359844
0.06779166666666667,-0.00020541208868060017
0.06783333333333333,-0.0002033972584117447
0.067875,-0.0002013841932589769
0.06791666666666667,-0.00019937298928823885
0.06795833333333333,-0.00019736374037007253
0.068,-0.00019535653825363425
0.06804166666666667,-0.00019335147264650107
0.06808333333333333,-0.0001913486313000328
0.068125,-0.0001893481000999164
0.06816666666666667,-0.00018734996316154326
0.06820833333333333,-0.000185354302930095
0.06825,-0.00018336120028522758
0.06829166666666667,-0.0001813707346500258
0.06833333333333333,-0.00017938298410387566
0.068375,-0.0001773980254990374
0.06841666666666667,-0.00017541593458056002
0.06845833333333333,-0.00017343678610876056
0.0685,-0.0001714606539831893
0.06854166666666667,-0.00016948761136711558
0.06858333333333333,-0.00016751773081204164
0.068625,-0.00016555108438212434
0.06866666666666667,-0.00016358774377845807
0.06870833333333333,-0.00016162778046322477
0.06875,-0.0001596712657837076
0.06879166666666667,-0.00015771827109589654
0.06883333333333333,-0.00015576886788732015
0.068875,-0.0001538231278989882
0.06891666666666667,-0.0001518811232463681
0.06895833333333333,-0.00014994292653896265
0.069,-0.00014800861099762948
0.06904166666666667,-0.0001460782505685831
0.06908333333333333,-0.00014415192003335177
0.069125,-0.000142229695114676
0.06916666666666667,-0.00014031165257866798
0.06920833333333333,-0.00013839787033337846
0.06925,-0.000136488427523755
0.06929166666666667,-0.00013458340462282062
0.06933333333333333,-0.00013268288351858958
0.069375,-0.0001307869475962392
0.06941666666666667,-0.00012889568181551135
0.06945833333333333,-0.00012700917278351517
0.0695,-0.00012512750882266282
0.06954166666666667,-0.00012325078003286088
0.06958333333333333,-0.00012137907834686417
0.069625,-0.00011951249757797183
0.06966666666666667,-0.00011765113345984927
0.06970833333333333,-0.0001157950836787708
0.06975,-0.00011394444789876858
0.06979166666666667,-0.00011209932778023091
0.06983333333333333,-0.00011025982699242574
0.069875,-0.00010842605122014857
0.06991666666666667,-0.00010659810816445971
0.06995833333333333,-0.00010477610753732209
0.07,-0.00010296016104950016
0.07004166666666667,-0.00010115038239069576
0.07008333333333333,-9.934688720156915e-05
0.070125,-9.754979303872404e-05
0.07016666666666667,-9.575921933416363e-05
0.07020833333333333,-9.397528734949104e-05
0.07025,-9.219812012375018e-05
0.07029166666666667,-9.042784241362423e-05
0.07033333333333333,-8.866458062531054e-05
0.070375,-8.690846273797881e-05
0.07041666666666667,-8.51596182192808e-05
0.07045833333333333,-8.341817793381192e-05
0.0705,-8.168427404540394e-05
0.07054166666666667,-7.995803991373766e-05
0.07058333333333333,-7.823960998545843e-05
0.070625,-7.65291196799311e-05
0.07066666666666667,-7.482670526981971e-05
0.07070833333333333,-7.313250375677442e-05
0.07075,-7.144665274281723e-05
0.07079166666666667,-6.976929029839992e-05
0.07083333333333333,-6.810055482811583e-05
0.070875,-6.644058493463054e-05
0.07091666666666667,-6.478951928084564e-05
0.07095833333333333,-6.314749644990066e-05
0.071,-6.151465480262232e-05
0.07104166666666667,-5.989113233246233e-05
0.07108333333333333,-5.8277066518341424e-05
0.071125,-5.66725941759591e-05
0.07116666666666667,-5.507785130819381e-05
0.07120833333333333,-5.34929729550087e-05
0.07125,-5.191809304255074e-05
0.07129166666666667,-5.0353344230701287e-05
0.07133333333333333,-4.879885775910904e-05
0.071375,-4.7254763292970433e-05
0.07141666666666667,-4.572118877011616e-05
0.07145833333333333,-4.419826025030651e-05
0.0715,-4.268610176687477e-05
0.07154166666666667,-4.118483518064696e-05
0.07158333333333333,-3.9694580036581e-05
0.071625,-3.821545342417318e-05
0.07166666666666667,-3.674756984269761e-05
0.07170833333333333,-3.5291041072090835e-05
0.07175,-3.3845976050072266e-05
0.07179166666666667,-3.24124807556948e-05
0.07183333333333333,-3.09906580991347e-05
0.071875,-2.9580607817635712e-05
0.07191666666666667,-2.818242637795006e-05
0.07195833333333333,-2.6796206885647332e-05
0.072,-2.542203900097529e-05
0.07204166666666667,-2.4060008860306487e-05
0.07208333333333333,-2.2710199002424136e-05
0.072125,-2.1372688299609445e-05
0.07216666666666667,-2.004755189371197e-05
0.07220833333333333,-1.873486113718897e-05
0.07225,-1.7434683539184113e-05
0.07229166666666667,-1.614708271693952e-05
0.07233333333333333,-1.4872118352957293e-05
0.072375,-1.3609846158561226e-05
0.07241666666666667,-1.2360317844550372e-05
0.07245833333333333,-1.1123581098964773e-05
0.0725,-9.899679571384145e-06
0.07254166666666667,-8.688652863627928e-06
0.07258333333333333,-7.490536527565727e-06
0.072625,-6.3053620709249605e-06
0.07266666666666667,-5.133156971513417e-06
0.07270833333333333,-3.973944699677315e-06
0.07275,-2.827744748457625e-06
0.07279166666666667,-1.6945726707921901e-06
0.07283333333333333,-5.744401229373745e-07
0.072875,5.326450868680657e-07
0.07291666666666667,1.626678945090376e-06
0.07295833333333333,2.707661174951282e-06
0.073,3.775595173917119e-06
0.07304166666666667,4.83048794731834e-06
0.07308333333333333,5.872350039105856e-06
0.073125,6.901195460214116e-06
0.07316666666666667,7.917041613885053e-06
0.07320833333333333,8.919909216540517e-06
0.07325,9.909822212988344e-06
0.07329166666666667,1.0886807685537583e-05
0.07333333333333333,1.1850895757171227e-05
0.073375,1.2802119489086394e-05
0.07341666666666667,1.3740514772888853e-05
0.07345833333333333,1.4666120217784388e-05
0.0735,1.5578977033457644e-05
0.07354166666666667,1.647912890958593e-05
0.07358333333333333,1.7366621892689468e-05
0.073625,1.8241504260647565e-05
0.07366666666666667,1.9103826395281765e-05
0.07370833333333333,1.995364065388483e-05
0.07375,2.079100124085067e-05
0.07379166666666667,2.1615964079914102e-05
0.07383333333333333,2.242858668639327e-05
0.073875,2.3228928038521385e-05
0.07391666666666667,2.4017048447577205e-05
0.07395833333333333,2.4793009426890425e-05
0.074,2.555687355946612e-05
0.07404166666666667,2.63087043636122e-05
0.07408333333333333,2.7048566156181943e-05
0.074125,2.7776523913566257e-05
0.07416666666666667,2.8492643130735486e-05
0.07420833333333333,2.919698967844943e-05
0.07425,2.988962965893476e-05
0.07429166666666667,3.0570629261086435e-05
0.07433333333333333,3.124005461664441e-05
0.074375,3.1897971658155e-05
0.07441666666666667,3.254444597874657e-05
0.07445833333333333,3.3179542693935514e-05
0.0745,3.3803326306382307e-05
0.07454166666666667,3.441586057479598e-05
0.07458333333333333,3.50172083879185e-05
0.074625,3.5607431643924705e-05
0.07466666666666667,3.6186591135114934e-05
0.07470833333333333,3.6754746437926505e-05
0.07475,3.7311955808635956e-05
0.07479166666666667,3.7858276084891916e-05
0.07483333333333334,3.839376259251513e-05
0.074875,3.891846905655703e-05
0.07491666666666667,3.9432447515846156e-05
0.07495833333333334,3.993574824095829e-05
0.075,4.042841965604864e-05
0.07504166666666667,4.0910508264811437e-05
0.07508333333333334,4.138205858042379e-05
0.075125,4.184311305955267e-05
0.07516666666666667,4.229371204129376e-05
0.07520833333333334,4.273389369219456e-05
0.07525,4.316369395795689e-05
0.07529166666666667,4.3583146521875287e-05
0.07533333333333334,4.399228276994686e-05
0.075375,4.4391131762619115e-05
0.07541666666666667,4.477972021350407e-05
0.07545833333333334,4.515807247603765e-05
0.0755,4.552621053938383e-05
0.07554166666666666,4.5884154034740525e-05
0.07558333333333334,4.6231920252900235e-05
0.075625,4.656952417323617e-05
0.07566666666666666,4.689697850335933e-05
0.07570833333333334,4.7214293728352905e-05
0.07575,4.752147816876014e-05
0.07579166666666666,4.7818538046631156e-05
0.07583333333333334,4.8105477558912446e-05
0.075875,4.8382298957771e-05
0.07591666666666666,4.864900263779168e-05
0.07595833333333334,4.890558722982956e-05
0.076,4.915204970092643e-05
0.07604166666666666,4.9388385459605134e-05
0.07608333333333334,4.961458846603015e-05
0.076125,4.9830651346819636e-05
0.07616666666666666,5.0036565514360106e-05
0.07620833333333334,5.0232321290252313e-05
0.07625,5.0417908032732855e-05
0.07629166666666666,5.0593314268645e-05
0.07633333333333334,5.075852783062668e-05
0.076375,5.091353599915964e-05
0.07641666666666666,5.1058325647891016e-05
0.07645833333333334,5.119288339029465e-05
0.0765,5.131719572636854e-05
0.07654166666666666,5.143124918869778e-05
0.07658333333333334,5.1535030487124016e-05
0.076625,5.1628526651089344e-05
0.07666666666666666,5.171172516917489e-05
0.07670833333333334,5.1784614125914e-05
0.07675,5.184718233587052e-05
0.07679166666666666,5.189941947457801e-05
0.07683333333333334,5.194131620616608e-05
0.076875,5.1972864308365936e-05
0.07691666666666666,5.19940567959851e-05
0.07695833333333334,5.200488804336706e-05
0.077,5.200535390571532e-05
0.07704166666666666,5.199545183899926e-05
0.07708333333333334,5.197518101792743e-05
0.077125,5.1944542451023176e-05
0.07716666666666666,5.190353909175448e-05
0.07720833333333334,5.185217594506767e-05
0.07725,5.179046016919183e-05
0.07729166666666666,5.171840117282247e-05
0.07733333333333334,5.163601070724865e-05
0.077375,5.154330295208782e-05
0.07741666666666666,5.1440294593351485e-05
0.07745833333333334,5.1327004893501394e-05
0.0775,5.1203455753627645e-05
0.07754166666666666,5.106967176766975e-05
0.07758333333333334,5.0925680268564086e-05
0.077625,5.0771511366740204e-05
0.07766666666666666,5.060719798211349e-05
0.07770833333333334,5.0432775871012505e-05
0.07775,5.024828364907279e-05
0.07779166666666666,5.0053762810580425e-05
0.07783333333333334,4.984925774489631e-05
0.077875,4.9634815750864434e-05
0.07791666666666666,4.941048704933115e-05
0.07795833333333334,4.917632479264065e-05
0.078,4.8932385069744115e-05
0.07804166666666666,4.8678726906409005e-05
0.07808333333333334,4.841541226080612e-05
0.078125,4.814250601479532e-05
0.07816666666666666,4.786007596095632e-05
0.07820833333333334,4.756819278550013e-05
0.07825,4.726693004744435e-05
0.07829166666666666,4.6956364154350245e-05
0.07833333333333334,4.663657433471788e-05
0.078375,4.630764260700633e-05
0.07841666666666666,4.596965374499334e-05
0.07845833333333334,4.5622695238921275e-05
0.0785,4.526685725173929e-05
0.07854166666666666,4.490223256983371e-05
0.07858333333333334,4.4528916548055176e-05
0.078625,4.4147007049295524e-05
0.07866666666666666,4.375660437891567e-05
0.07870833333333334,4.3357811214104407e-05
0.07875,4.295073252806093e-05
0.07879166666666666,4.253547550887393e-05
0.07883333333333334,4.211214947301e-05
0.078875,4.168086577312495e-05
0.07891666666666666,4.1241737699722835e-05
0.07895833333333334,4.0794880376645096e-05
0.079,4.0340410650970405e-05
0.07904166666666666,3.9878446977712465e-05
0.07908333333333334,3.940910929944668e-05
0.079125,3.8932518921562824e-05
0.07916666666666666,3.844879838424474e-05
0.07920833333333334,3.795807133176931e-05
0.07925,3.746046237926737e-05
0.07929166666666666,3.69560969773684e-05
0.07933333333333334,3.6445101275644196e-05
0.079375,3.592760198585705e-05
0.07941666666666666,3.540372624558682e-05
0.07945833333333334,3.487360148236201e-05
0.0795,3.4337355278366466e-05
0.07954166666666666,3.379511523585318e-05
0.07958333333333334,3.3247008843165595e-05
0.079625,3.2693163340844194e-05
0.07966666666666666,3.21337055871183e-05
0.07970833333333334,3.1568761922504086e-05
0.07975,3.0998458033568935e-05
0.07979166666666666,3.0422918815538953e-05
0.07983333333333334,2.9842268233251884e-05
0.079875,2.9256629180743387e-05
0.07991666666666666,2.866612334027441e-05
0.07995833333333334,2.807087104128212e-05
0.08,2.747099111967638e-05
0.08004166666666666,2.6866600778596857e-05
0.08008333333333334,2.6257815452307258e-05
0.080125,2.5644748674733876e-05
0.08016666666666666,2.5027511953582882e-05
0.08020833333333334,2.4406214650926736e-05
0.08025,2.3780963871720224e-05
0.08029166666666666,2.3151864361425543e-05
0.08033333333333334,2.2519018412556994e-05
0.080375,2.1882525779304512e-05
0.08041666666666666,2.1242483599898717e-05
0.08045833333333334,2.059898632666133e-05
0.0805,1.9952125663450187e-05
0.08054166666666666,1.9301990510161193e-05
0.08058333333333334,1.864866691420259e-05
0.080625,1.7992238028929886e-05
0.08066666666666666,1.7332784078715477e-05
0.08070833333333334,1.667038233004684e-05
0.08075,1.6005107068494838e-05
0.08079166666666666,1.5337029582536865e-05
0.08083333333333333,1.4666218155822168e-05
0.080875,1.3992738068682883e-05
0.08091666666666666,1.331665160855713e-05
0.08095833333333333,1.2638018088789726e-05
0.081,1.1956893875690513e-05
0.08104166666666666,1.127333242394884e-05
0.08108333333333333,1.0587384320289621e-05
0.081125,9.899097335033108e-06
0.08116666666666666,9.208516481459188e-06
0.08120833333333333,8.51568408331881e-06
0.08125,7.820639850763807e-06
0.08129166666666666,7.123420964379613e-06
0.08133333333333333,6.424062166478337e-06
0.081375,5.722595858670561e-06
0.08141666666666666,5.019052204894257e-06
0.08145833333333333,4.313459239368902e-06
0.0815,3.6058429790504455e-06
0.08154166666666667,2.896227539847811e-06
0.08158333333333333,2.1846352555961917e-06
0.081625,1.4710867993054412e-06
0.08166666666666667,7.55601307064974e-07
0.08170833333333333,3.8196504916669996e-08
0.08175,-6.811111619784826e-07
0.08179166666666667,-1.4023063990652564e-06
0.08183333333333333,-2.125374931658268e-06
0.081875,-2.850303373701365e-06
0.08191666666666667,-3.5770790959114033e-06
0.08195833333333333,-4.305690093496148e-06
0.082,-5.036124853805175e-06
0.08204166666666667,-5.768372224348528e-06
0.08208333333333333,-6.5024212818331215e-06
0.082125,-7.23826120318659e-06
0.08216666666666667,-7.975881139685322e-06
0.08220833333333333,-8.715270094962957e-06
0.08225,-9.456416806970366e-06
0.08229166666666667,-1.0199309633771004e-05
0.08233333333333333,-1.0943936443678914e-05
0.082375,-1.1690284510405108e-05
0.08241666666666667,-1.2438340412874137e-05
0.08245833333333333,-1.3188089938509354e-05
0.0825,-1.393951798902887e-05
0.08254166666666667,-1.4692608488531874e-05
0.08258333333333333,-1.5447344294163196e-05
0.082625,-1.6203707109818622e-05
0.08266666666666667,-1.6961677403308593e-05
0.08270833333333333,-1.772123432753356e-05
0.08275,-1.848235564654141e-05
0.08279166666666667,-1.9245017667172504e-05
0.08283333333333333,-2.0009195176353138e-05
0.082875,-2.0774861383659375e-05
0.08291666666666667,-2.1541987868659192e-05
0.08295833333333333,-2.2310544532639352e-05
0.083,-2.308049955463494e-05
0.08304166666666667,-2.385181935167643e-05
0.08308333333333333,-2.4624468542747678e-05
0.083125,-2.5398409916030634e-05
0.08316666666666667,-2.6173604399737935e-05
0.08320833333333333,-2.6950011037253988e-05
0.08325,-2.7727586967032556e-05
0.08329166666666667,-2.8506287407214972e-05
0.08333333333333333,-2.9286065644637625e-05
0.083375,-3.0066873027865203e-05
0.08341666666666667,-3.084865896404228e-05
0.08345833333333333,-3.16313709196618e-05
0.0835,-3.2414954425662016e-05
0.08354166666666667,-3.319935308721065e-05
0.08358333333333333,-3.398450859815494e-05
0.083625,-3.4770360759932826e-05
0.08366666666666667,-3.5556847504862794e-05
0.08370833333333333,-3.634390492373565e-05
0.08375,-3.713146729763996e-05
0.08379166666666667,-3.791946713413278e-05
0.08383333333333333,-3.870783520783293e-05
0.083875,-3.949650060526642e-05
0.08391666666666667,-4.0285390773740445e-05
0.08395833333333333,-4.107443157417591e-05
0.084,-4.186354733809797e-05
0.08404166666666667,-4.265266092916937e-05
0.08408333333333333,-4.344169380959969e-05
0.084125,-4.4230566111762206e-05
0.08416666666666667,-4.501919671536631e-05
0.08420833333333333,-4.580750333010321e-05
0.08425,-4.659540258324904e-05
0.08429166666666667,-4.73828101119247e-05
0.08433333333333333,-4.8169640660041544e-05
0.084375,-4.895580817991128e-05
0.08441666666666667,-4.9741225938339175e-05
0.08445833333333333,-5.052580662669138e-05
0.0845,-5.130946247409443e-05
0.08454166666666667,-5.2092105363485517e-05
0.08458333333333333,-5.287364695132611e-05
0.084625,-5.3653998792005885e-05
0.08466666666666667,-5.443307246726938e-05
0.08470833333333333,-5.521077972059905e-05
0.08475,-5.598703259666123e-05
0.08479166666666667,-5.676174358572078e-05
0.08483333333333333,-5.753482577188342e-05
0.084875,-5.8306192983003323e-05
0.08491666666666667,-5.907575994018501e-05
0.08495833333333333,-5.9843442405810516e-05
0.085,-6.060915732963954e-05
0.08504166666666667,-6.137282299225266e-05
0.08508333333333333,-6.213435914490342e-05
0.085125,-6.289368714538091e-05
0.08516666666666667,-6.365073009017831e-05
0.08520833333333333,-6.440541294345397e-05
0.08525,-6.515766266299104e-05
0.08529166666666667,-6.590740832308105e-05
0.08533333333333333,-6.665458123422387e-05
0.085375,-6.739911505951101e-05
0.08541666666666667,-6.814094592754426e-05
0.08545833333333333,-6.888001254192123e-05
0.0855,-6.961625628746357e-05
0.08554166666666667,-7.034962133305568e-05
0.08558333333333333,-7.108005473011302e-05
0.085625,-7.180750650487213e-05
0.08566666666666667,-7.253192974301329e-05
0.08570833333333333,-7.325328066651397e-05
0.08575,-7.397151870343214e-05
0.08579166666666667,-7.4686606550948e-05
0.08583333333333333,-7.539851023152442e-05
0.085875,-7.610719914209849e-05
0.08591666666666667,-7.681264609637762e-05
0.08595833333333333,-7.751482736044046e-05
0.086,-7.82137226822459e-05
0.08604166666666667,-7.890931531591221e-05
0.08608333333333333,-7.960159204085417e-05
0.086125,-8.029054317473257e-05
0.08616666666666667,-8.097616257923059e-05
0.08620833333333333,-8.165844765845379e-05
0.08625,-8.233739934980066e-05
0.08629166666666667,-8.301302210674547e-05
0.08633333333333333,-8.368532387321309e-05
0.086375,-8.435431604982073e-05
0.08641666666666667,-8.502001345200985e-05
0.08645833333333333,-8.568243425897699e-05
0.0865,-8.634159995196325e-05
0.08654166666666667,-8.699753524164729e-05
0.08658333333333333,-8.76502679854815e-05
0.086625,-8.829982909578407e-05
0.08666666666666667,-8.894625243926341e-05
0.08670833333333333,-8.958957472897882e-05
0.08675,-9.022983540998657e-05
0.08679166666666667,-9.086707653995217e-05
0.08683333333333333,-9.150134266575294e-05
0.086875,-9.213268069664372e-05
0.08691666666666667,-9.276113977475548e-05
0.08695833333333333,-9.338677114441258e-05
0.087,-9.400962802157007e-05
0.08704166666666667,-9.46297654635692e-05
0.08708333333333333,-9.52472402388848e-05
0.087125,-9.586211069693388e-05
0.08716666666666667,-9.647443663826372e-05
0.08720833333333333,-9.708427918487243e-05
0.08725,-9.769170064957233e-05
0.08729166666666667,-9.829676440318636e-05
0.08733333333333333,-9.889953473936239e-05
0.087375,-9.950007673802623e-05
0.08741666666666667,-0.00010009845612883963
0.08745833333333333,-0.00010069473915536232
0.0875,-0.00010128899243977803
0.08754166666666667,-0.00010188128284786
0.08758333333333333,-0.00010247167735427692
0.087625,-0.00010306024290864364
0.08766666666666667,-0.00010364704630271606
0.08770833333333333,-0.00010423215403914353
0.08775,-0.00010481563220204562
0.08779166666666667,-0.00010539754632905342
0.08783333333333333,-0.0001059779612837362
0.087875,-0.00010655694112719836
0.08791666666666667,-0.00010713454898841169
0.08795833333333333,-0.00010771084693412739
0.088,-0.00010828589584009819
0.08804166666666667,-0.00010885975526533524
0.08808333333333333,-0.00010943248333058591
0.088125,-0.00011000413660172166
0.08816666666666667,-0.00011057476997839767
0.08820833333333333,-0.0001111444365880824
0.08825,-0.00011171318768558603
0.08829166666666667,-0.00011228107255852916
0.08833333333333333,-0.0001128481384391263
0.088375,-0.00011341443042201508
0.08841666666666667,-0.00011397999138729078
0.08845833333333333,-0.00011454486192795019
0.0885,-0.0001151090802814672
0.08854166666666667,-0.00011567268226566566
0.08858333333333333,-0.00011623570121899781
0.088625,-0.00011679816794502734
0.08866666666666667,-0.00011736011066078886
0.08870833333333333,-0.00011792155494886502
0.08875,-0.00011848252371364346
0.08879166666666667,-0.00011904303714301863
0.08883333333333333,-0.0001196031126766643
0.088875,-0.00012016276498088597
0.08891666666666667,-0.00012072200592952827
0.08895833333333333,-0.000121280844590934
0.089,-0.00012183928722120244
0.08904166666666667,-0.00012239733726342205
0.08908333333333333,-0.00012295499535186938
0.089125,-0.00012351225932009116
0.08916666666666667,-0.00012406912421238694
0.08920833333333333,-0.00012462558229880152
0.08925,-0.00012518162309393607
0.08929166666666667,-0.00012573723338024466
0.08933333333333333,-0.00012629239723710905
0.089375,-0.00012684709607713364
0.08941666666666667,-0.00012740130869056678
0.08945833333333333,-0.00012795501129815004
0.0895,-0.0001285081776124798
0.08954166666666667,-0.00012906077890786015
0.08958333333333333,-0.00012961278409820382
0.089625,-0.00013016415982199748
0.08966666666666667,-0.0001307148705333896
0.08970833333333333,-0.00013126487859900775
0.08975,-0.000131814144400307
0.08979166666666667,-0.00013236262644089294
0.08983333333333333,-0.00013291028145807898
0.089875,-0.00013345706453814
0.08991666666666667,-0.00013400292923487777
0.08995833333333333,-0.00013454782769117823
0.09,-0.00013509171076326682
0.09004166666666667,-0.00013563452814730766
0.09008333333333333,-0.00013617622850798505
0.090125,-0.00013671675960877106
0.09016666666666667,-0.0001372560684436052
0.09020833333333333,-0.00013779410136982747
0.09025,-0.0001383308042422542
0.09029166666666667,-0.0001388661225480518
0.09033333333333333,-0.00013940000154197545
0.090375,-0.00013993238638178464
0.09041666666666667,-0.0001404632222637183
0.09045833333333334,-0.00014099245455770338
0.0905,-0.0001415200289418145
0.09054166666666667,-0.00014204589153545282
0.09058333333333334,-0.0001425699890307374
0.090625,-0.0001430922688217125
0.09066666666666667,-0.00014361267913094467
0.09070833333333334,-0.00014413116913289473
0.09075,-0.00014464768907342438
0.09079166666666667,-0.00014516219038497108
0.09083333333333334,-0.00014567462579713898
0.090875,-0.0001461849494427005
0.09091666666666667,-0.00014669311695899483
0.09095833333333334,-0.00014719908558429295
0.091,-0.0001477028142484627
0.09104166666666667,-0.00014820426365756006
0.09108333333333334,-0.00014870339637247968
0.091125,-0.00014920017688217053
0.09116666666666666,-0.00014969457167172587
0.09120833333333334,-0.0001501865492849546
0.09125,-0.00015067608038076116
0.09129166666666666,-0.0001511631377831041
0.09133333333333334,-0.00015164769652462084
0.091375,-0.00015212973388374715
0.09141666666666666,-0.00015260922941461768
0.09145833333333334,-0.00015308616496871954
0.0915,-0.00015356052470779247
0.09154166666666666,-0.00015403229510887112
0.09158333333333334,-0.00015450146496347606
0.091625,-0.00015496802537279128
0.09166666666666666,-0.00015543196973976937
0.09170833333333334,-0.00015589329375845142
0.09175,-0.00015635199540036163
0.09179166666666666,-0.0001568080748971199
0.09183333333333334,-0.00015726153471758923
0.091875,-0.00015771237953765874
0.09191666666666666,-0.00015816061620134913
0.09195833333333334,-0.00015860625367239433
0.092,-0.0001590493029751218
0.09204166666666666,-0.00015948977712329607
0.09208333333333334,-0.0001599276910368009
0.092125,-0.00016036306144788607
0.09216666666666666,-0.00016079590679942129
0.09220833333333334,-0.00016122624713712613
0.09225,-0.00016165410399750343
0.09229166666666666,-0.00016207950029337832
0.09233333333333334,-0.00016250246019829405
0.092375,-0.00016292300902940243
0.09241666666666666,-0.000163341173127387
0.09245833333333334,-0.00016375697973259272
0.0925,-0.00016417045685886833
0.09254166666666666,-0.00016458163316859613
0.09258333333333334,-0.00016499053785094982
0.092625,-0.00016539720050160362
0.09266666666666666,-0.00016580165100074185
0.09270833333333334,-0.00016620391938821266
0.09275,-0.00016660403573658485
0.09279166666666666,-0.00016700203002311298
0.09283333333333334,-0.00016739793200121076
0.092875,-0.00016779177107199307
0.09291666666666666,-0.0001681835761567399
0.09295833333333334,-0.00016857337557113548
0.093,-0.0001689611969015436
0.09304166666666666,-0.0001693470668828323
0.09308333333333334,-0.00016973101127691165
0.093125,-0.00017011305475144367
0.09316666666666666,-0.00017049322075889036
0.09320833333333334,-0.00017087153141652408
0.09325,-0.00017124800738793183
0.09329166666666666,-0.00017162266776640193
0.09333333333333334,-0.00017199552996071272
0.093375,-0.00017236660958387927
0.09341666666666666,-0.0001727359203452336
0.09345833333333334,-0.00017310347394611692
0.0935,-0.00017346927997968098
0.09354166666666666,-0.000173833345835606
0.09358333333333334,-0.00017419567661042706
0.093625,-0.00017455627502354308
0.09366666666666666,-0.00017491514133860883
0.09370833333333334,-0.00017527227329026084
0.09375,-0.00017562766601638509
0.09379166666666666,-0.00017598131199597736
0.09383333333333334,-0.0001763332009924096
0.093875,-0.00017668332000189907
0.09391666666666666,-0.00017703165320730245
0.09395833333333334,-0.00017737818193801718
0.094,-0.00017772288463728173
0.09404166666666666,-0.00017806573683799696
0.09408333333333334,-0.0001784067111476329
0.094125,-0.00017874577724230763
0.09416666666666666,-0.00017908290186962326
0.09420833333333334,-0.00017941804885931057
0.09425,-0.0001797511791405001
0.09429166666666666,-0.0001800822507644974
0.09433333333333334,-0.00018041121893225238
0.094375,-0.0001807380360261653
0.09441666666666666,-0.00018106265164606345
0.09445833333333334,-0.0001813850126490444
0.0945,-0.00018170506319288815
0.09454166666666666,-0.00018202274478297862
0.09458333333333334,-0.00018233799632281957
0.094625,-0.00018265075416820377
0.09466666666666666,-0.00018296095218503034
0.09470833333333334,-0.00018326852181093685
0.09475,-0.00018357339212119117
0.09479166666666666,-0.00018387548989915646
0.09483333333333334,-0.0001841747397110847
0.094875,-0.00018447106398450835
0.09491666666666666,-0.00018476438308945325
0.09495833333333334,-0.00018505461542242665
0.095,-0.00018534167749427243
0.09504166666666666,-0.00018562548402328675
0.09508333333333334,-0.00018590594803416733
0.095125,-0.0001861829809625562
0.09516666666666666,-0.0001864564927647326
0.09520833333333334,-0.00018672639203202768
0.09525,-0.00018699258610948888
0.09529166666666666,-0.0001872549812182471
0.09533333333333334,-0.00018751348258112701
0.095375,-0.00018776799455138914
0.09541666666666666,-0.00018801842074483028
0.09545833333333334,-0.00018826466417533008
0.0955,-0.00018850662739347887
0.09554166666666666,-0.00018874421262755632
0.09558333333333334,-0.00018897732192597113
0.095625,-0.0001892058573004972
0.09566666666666666,-0.00018942972087008072
0.09570833333333334,-0.00018964881500506278
0.09575,-0.00018986304247165355
0.09579166666666666,-0.0001900723065770654
0.09583333333333334,-0.00019027651131622305
0.095875,-0.00019047556152051792
0.09591666666666666,-0.0001906693630079668
0.09595833333333334,-0.00019085782273313645
0.096,-0.00019104084893482778
0.09604166666666666,-0.00019121835128001647
0.09608333333333334,-0.00019139024100320605
0.096125,-0.00019155643104045204
0.09616666666666666,-0.00019171683615743748
0.09620833333333334,-0.00019187137307170583
0.09625,-0.0001920199605699648
0.09629166666666666,-0.00019216251962193923
0.09633333333333334,-0.0001922989734926806
0.096375,-0.00019242924785512378
0.09641666666666666,-0.00019255327090379867
0.09645833333333333,-0.00019267097346951017
0.0965,-0.00019278228913397827
0.09654166666666666,-0.00019288715434285716
0.09658333333333333,-0.00019298550851510487
0.096625,-0.00019307729414655574
0.09666666666666666,-0.00019316245690625315
0.09670833333333333,-0.00019324094572541325
0.09675,-0.00019331271287962952
0.09679166666666666,-0.0001933777140646902
0.09683333333333333,-0.00019343590846603232
0.096875,-0.00019348725882179201
0.09691666666666666,-0.00019353173147925357
0.09695833333333333,-0.00019356929644447144
0.097,-0.0001935999274252027
0.09704166666666666,-0.00019362360186736305
0.09708333333333333,-0.00019364030098469476
0.097125,-0.00019365000978103483
0.09716666666666667,-0.00019365271706469668
0.09720833333333333,-0.00019364841545422244
0.09725,-0.00019363710137398866
0.09729166666666667,-0.00019361877503776997
0.09733333333333333,-0.0001935934404192462
0.097375,-0.0001935611052102199
0.09741666666666667,-0.00019352178076842966
0.09745833333333333,-0.00019347548205648043
0.0975,-0.00019342222757238206
0.09754166666666667,-0.00019336203927156846
0.09758333333333333,-0.00019329494248039917
0.097625,-0.00019322096580173744
0.09766666666666667,-0.00019314014101365487
0.09770833333333333,-0.0001930525029622356
0.09775,-0.00019295808944899803
0.09779166666666667,-0.00019285694111323252
0.09783333333333333,-0.00019274910130974275
0.097875,-0.00019263461598251907
0.09791666666666667,-0.00019251353353450033
0.09795833333333333,-0.0001923859046933738
0.098,-0.0001922517823735661
0.09804166666666667,-0.00019211122153474863
0.09808333333333333,-0.00019196427903719763
0.098125,-0.00019181101349451801
0.09816666666666667,-0.00019165148512464823
0.09820833333333333,-0.00019148575560038578
0.09825,-0.00019131388790055508
0.09829166666666667,-0.00019113594616245204
0.09833333333333333,-0.00019095199553573563
0.098375,-0.00019076210203752895
0.09841666666666667,-0.00019056633240799802
0.09845833333333333,-0.00019036475396557774
0.0985,-0.00019015743446170732
0.09854166666666667,-0.00018994444193560627
0.09858333333333333,-0.0001897258445696556
0.098625,-0.00018950171054591032
0.09866666666666667,-0.0001892721079045328
0.09870833333333333,-0.00018903710440530236
0.09875,-0.000188796767393552
0.09879166666666667,-0.00018855116367135698
0.09883333333333333,-0.00018830035937376552
0.098875,-0.00018804441984950667
0.09891666666666667,-0.00018778340954603761
0.09895833333333333,-0.00018751739189901324
0.099,-0.00018724642922632643
0.09904166666666667,-0.00018697058262708677
0.09908333333333333,-0.00018668991188572652
0.099125,-0.00018640447538096396
0.09916666666666667,-0.00018611432999944663
0.09920833333333333,-0.0001858195310543899
0.09925,-0.00018552013220975345
0.09929166666666667,-0.00018521618541043964
0.09933333333333333,-0.0001849077408188404
0.099375,-0.0001845948467576982
0.09941666666666667,-0.00018427754965888188
0.09945833333333333,-0.00018395589401764856
0.0995,-0.00018362992235216815
0.09954166666666667,-0.00018329967516797567
0.09958333333333333,-0.00018296519092630097
0.099625,-0.00018262650601476505
0.09966666666666667,-0.00018228365471986566
0.09970833333333333,-0.0001819366692021633
0.09975,-0.00018158557947526443
0.09979166666666667,-0.0001812304133889498
0.09983333333333333,-0.00018087119661663713
0.099875,-0.0001805079526477421
0.09991666666666667,-0.00018014070278554674
0.09995833333333333,-0.0001797694661509164
0.1,-0.0001793942596919983
0.10004166666666667,-0.0001790150981997673
0.10008333333333333,-0.00017863199432861917
0.100125,-0.000178244958620566
0.10016666666666667,-0.0001778539995321091
0.10020833333333333,-0.00017745912346439695
0.10025,-0.0001770603347980255
0.10029166666666667,-0.00017665763593321357
0.10033333333333333,-0.00017625102733542032
0.100375,-0.00017584050758667318
0.10041666666666667,-0.0001754260734433178
0.10045833333333333,-0.0001750077199006781
0.1005,-0.00017458544026429144
0.10054166666666667,-0.0001741592262268696
0.10058333333333333,-0.00017372906795026007
0.100625,-0.00017329495415199228
0.10066666666666667,-0.00017285687219626518
0.10070833333333333,-0.0001724148081893674
0.10075,-0.0001719687470791624
0.10079166666666667,-0.0001715186727576218
0.10083333333333333,-0.0001710645681653986
0.100875,-0.00017060641539831315
0.10091666666666667,-0.00017014419581624934
0.10095833333333333,-0.00016967789015463189
0.101,-0.00016920747863812728
0.10104166666666667,-0.00016873294109635834
0.10108333333333333,-0.00016825425708215185
0.101125,-0.00016777140599346453
0.10116666666666667,-0.00016728436719996642
0.10120833333333333,-0.0001667931201743981
0.10125,-0.00016629764462800021
0.10129166666666667,-0.00016579792064881318
0.10133333333333333,-0.0001652939288412427
0.101375,-0.0001647856504650183
0.10141666666666667,-0.00016427306757163144
0.10145833333333333,-0.00016375616313671988
0.1015,-0.00016323492118791653
0.10154166666666667,-0.0001627093269286585
0.10158333333333333,-0.00016217936685851338
0.101625,-0.00016164502889033476
0.10166666666666667,-0.00016110630246485064
0.10170833333333333,-0.0001605631786638054
0.10175,-0.00016001565032261694
0.10179166666666667,-0.0001594637121423324
0.10183333333333333,-0.00015890736079941282
0.101875,-0.00015834659505179578
0.10191666666666667,-0.0001577814158402615
0.10195833333333333,-0.00015721182638400982
0.102,-0.0001566378322688322
0.10204166666666667,-0.00015605944152652878
0.10208333333333333,-0.00015547666470530017
0.102125,-0.00015488951493169067
0.10216666666666667,-0.00015429800796476755
0.10220833333333333,-0.00015370216224295044
0.10225,-0.00015310199892368866
0.10229166666666667,-0.0001524975419160664
0.10233333333333333,-0.00015188881790626765
0.102375,-0.00015127585637564686
0.10241666666666667,-0.00015065868961124877
0.10245833333333333,-0.0001500373527090182
0.1025,-0.00014941188356997707
0.10254166666666667,-0.00014878232288906214
0.10258333333333333,-0.00014814871413586467
0.102625,-0.00014751110352653475
0.10266666666666667,-0.0001468695399861305
0.10270833333333333,-0.00014622407510079313
0.10275,-0.00014557476305965863
0.10279166666666667,-0.0001449216605868348
0.10283333333333333,-0.00014426482686361166
0.102875,-0.00014360432344101537
0.10291666666666667,-0.00014294021414325265
0.10295833333333333,-0.00014227256496285627
0.103,-0.00014160144394812022
0.10304166666666667,-0.00014092692108347998
0.10308333333333333,-0.00014024906816422004
0.103125,-0.00013956795866759073
0.10316666666666667,-0.00013888366762233292
0.10320833333333333,-0.0001381962714775428
0.10325,-0.00013750584797026622
0.10329166666666667,-0.00013681247599044573
0.10333333333333333,-0.00013611623544249735
0.103375,-0.0001354172071039073
0.10341666666666667,-0.00013471547248176285
0.10345833333333333,-0.00013401111366803398
0.1035,-0.0001333042131939873
0.10354166666666667,-0.00013259485388383103
0.10358333333333333,-0.00013188311870823038
0.103625,-0.0001311690906393065
0.10366666666666667,-0.00013045285250897626
0.10370833333333333,-0.0001297344868718633
0.10375,-0.00012901407587327174
0.10379166666666667,-0.00012829170112213192
0.10383333333333333,-0.000127567443568263
0.103875,-0.00012684138338277853
0.10391666666666667,-0.0001261135998404229
0.10395833333333333,-0.00012538417120330612
0.104,-0.0001246531746063313
0.10404166666666667,-0.00012392068594482646
0.10408333333333333,-0.00012318677976459893
0.104125,-0.00012245152915428662
0.10416666666666667,-0.00012171500563961431
0.10420833333333333,-0.00012097727907919967
0.10425,-0.00012023841756211612
0.10429166666666667,-0.0001194984873080747
0.10433333333333333,-0.0001187575525711885
0.104375,-0.00011801567554793618
0.10441666666666667,-0.00011727291628961029
0.10445833333333333,-0.00011652933261942607
0.1045,-0.00011578498005463327
0.10454166666666667,-0.00011503991173420457
0.10458333333333333,-0.00011429417835239533
0.104625,-0.00011354782809770914
0.10466666666666667,-0.00011280090659648509
0.10470833333333333,-0.00011205345686080855
0.10475,-0.00011130551924095906
0.10479166666666667,-0.0001105571313826031
0.10483333333333333,-0.00010980832818862209
0.104875,-0.00010905914178516428
0.10491666666666667,-0.0001083096014916267
0.10495833333333333,-0.00010755973379477545
0.105,-0.00010680956232738016
0.10504166666666667,-0.00010605910785154522
0.10508333333333333,-0.00010530838824707222
0.105125,-0.00010455741850550528
0.10516666666666667,-0.0001038062107301992
0.10520833333333333,-0.00010305477414207888
0.10525,-0.00010230311509049663
0.10529166666666667,-0.00010155123706892435
0.10533333333333333,-0.00010079914073575041
0.105375,-0.0001000468239406398
0.10541666666666667,-9.929428175664909e-05
0.10545833333333333,-9.854150651793817e-05
0.1055,-9.778848786270121e-05
0.10554166666666667,-9.703521278104873e-05
0.10558333333333333,-9.628166566816662e-05
0.105625,-9.5527828383333e-05
0.10566666666666667,-9.477368031467751e-05
0.10570833333333333,-9.401919844893191e-05
0.10575,-9.326435744575227e-05
0.10579166666666667,-9.250912971684182e-05
0.10583333333333333,-9.175348551028413e-05
0.105875,-9.099739300040928e-05
0.10591666666666667,-9.024081838344554e-05
0.10595833333333333,-8.94837259792238e-05
0.106,-8.872607833945126e-05
0.10604166666666667,-8.79678363632638e-05
0.10608333333333334,-8.720895942029345e-05
0.106125,-8.644940548048756e-05
0.10616666666666667,-8.56891312491826e-05
0.10620833333333334,-8.492809230599706e-05
0.10625,-8.416624324668624e-05
0.10629166666666667,-8.340353782749566e-05
0.10633333333333334,-8.263992911172887e-05
0.106375,-8.187536961849377e-05
0.10641666666666667,-8.110981147374296e-05
0.10645833333333334,-8.034320656360783e-05
0.1065,-7.957550668990517e-05
0.10654166666666667,-7.880666372769472e-05
0.10658333333333334,-7.80366297845474e-05
0.106625,-7.72653573606996e-05
0.10666666666666667,-7.649279950906014e-05
0.10670833333333334,-7.5718909994055e-05
0.10675,-7.494364344780811e-05
0.10679166666666666,-7.416695552142074e-05
0.10683333333333334,-7.33888030293182e-05
0.106875,-7.260914408620641e-05
0.10691666666666666,-7.182793823797375e-05
0.10695833333333334,-7.104514658847632e-05
0.107,-7.026073192354558e-05
0.10704166666666666,-6.94746588328859e-05
0.10708333333333334,-6.868689383012129e-05
0.107125,-6.789740547052985e-05
0.10716666666666666,-6.71061644653685e-05
0.10720833333333334,-6.631314379202768e-05
0.10725,-6.551831880014262e-05
0.10729166666666666,-6.472166731413945e-05
0.10733333333333334,-6.39231697322529e-05
0.107375,-6.312280912131973e-05
0.10741666666666666,-6.23205713062833e-05
0.10745833333333334,-6.151644495356766e-05
0.1075,-6.07104216478925e-05
0.10754166666666666,-5.990249596230619e-05
0.10758333333333334,-5.909266552137245e-05
0.107625,-5.828093105781306e-05
0.10766666666666666,-5.746729646341698e-05
0.10770833333333334,-5.6651768835122855e-05
0.10775,-5.583435851624566e-05
0.10779166666666666,-5.501507913152008e-05
0.10783333333333334,-5.419394761445025e-05
0.107875,-5.337098422642249e-05
0.10791666666666666,-5.254621256780271e-05
0.10795833333333334,-5.171965958118089e-05
0.108,-5.0891355546525284e-05
0.10804166666666666,-5.0061334067835034e-05
0.10808333333333334,-4.922963205129951e-05
0.108125,-4.839628967549705e-05
0.10816666666666666,-4.756135035372054e-05
0.10820833333333334,-4.672486068741977e-05
0.10825,-4.5886870409460085e-05
0.10829166666666666,-4.504743231661674e-05
0.10833333333333334,-4.4206602191548285e-05
0.108375,-4.3364438715042214e-05
0.10841666666666666,-4.2521003369680845e-05
0.10845833333333334,-4.167636033636891e-05
0.1085,-4.0830576385544274e-05
0.10854166666666666,-3.998372076522013e-05
0.10858333333333334,-3.9135865087732064e-05
0.108625,-3.828708321601689e-05
0.10866666666666666,-3.743745114898723e-05
0.10870833333333334,-3.658704690479952e-05
0.10875,-3.5735950400872486e-05
0.10879166666666666,-3.4884243330257365e-05
0.10883333333333334,-3.40320090348726e-05
0.108875,-3.3179332376501256e-05
0.10891666666666666,-3.23262996062311e-05
0.10895833333333334,-3.147299823295506e-05
0.109,-3.0619516891793486e-05
0.10904166666666666,-2.976594521303085e-05
0.10908333333333334,-2.8912373691426135e-05
0.109125,-2.805889355549958e-05
0.10916666666666666,-2.720559663667001e-05
0.10920833333333334,-2.6352575238334608e-05
0.10925,-2.5499922004776246e-05
0.10929166666666666,-2.4647729789090307e-05
0.10933333333333334,-2.3796091518970435e-05
0.109375,-2.2945100059945103e-05
0.10941666666666666,-2.209484807681267e-05
0.10945833333333334,-2.124542789459544e-05
0.1095,-2.0396931360287232e-05
0.10954166666666666,-1.954944970625856e-05
0.10958333333333334,-1.870307341571265e-05
0.109625,-1.7857892090355825e-05
0.10966666666666666,-1.7013994320309433e-05
0.10970833333333334,-1.6171467556141852e-05
0.10975,-1.5330397983161703e-05
0.10979166666666666,-1.4490870398795334e-05
0.10983333333333334,-1.3652968094297229e-05
0.109875,-1.2816772741841781e-05
0.10991666666666666,-1.1982364287615815e-05
0.10995833333333334,-1.1149820851200716e-05
0.11,-1.0319218631179086e-05
0.11004166666666666,-9.490631816489337e-06
0.11008333333333334,-8.66413250289117e-06
0.110125,-7.839790614132475e-06
0.11016666666666666,-7.017673827887372e-06
0.11020833333333334,-6.1978475069783285e-06
0.11025,-5.380374636373389e-06
0.11029166666666666,-4.565315765880451e-06
0.11033333333333334,-3.7527289579394624e-06
0.110375,-2.942669739922836e-06
0.11041666666666666,-2.1351910607386336e-06
0.11045833333333334,-1.3303432519404506e-06
0.1105,-5.281739938589993e-07
0.11054166666666666,2.7127171252794985e-07
0.11058333333333334,1.0679515675787428e-06
0.110625,1.861825989576244e-06
0.11066666666666666,2.652858127649574e-06
0.11070833333333334,3.4410138721927518e-06
0.11075,4.226261862357397e-06
0.11079166666666666,5.008573489292218e-06
0.11083333333333334,5.787922894136808e-06
0.110875,6.564286960530886e-06
0.11091666666666666,7.337645301575468e-06
0.11095833333333334,8.107980240527023e-06
0.111,8.875276783970403e-06
0.11104166666666666,9.639522586643644e-06
0.11108333333333334,1.0400707907844793e-05
0.111125,1.115882555957886e-05
0.11116666666666666,1.1913870846722865e-05
0.11120833333333334,1.2665841499970212e-05
0.11125,1.3414737602657017e-05
0.11129166666666666,1.4160561512292216e-05
0.11133333333333334,1.4903317777039413e-05
0.111375,1.5643013047155884e-05
0.11141666666666666,1.6379655981615233e-05
0.11145833333333334,1.711325715009779e-05
0.1115,1.7843828929742255e-05
0.11154166666666666,1.857138539545296e-05
0.11158333333333334,1.929594220317248e-05
0.111625,2.0017516466717803e-05
0.11166666666666666,2.0736126629424868e-05
0.11170833333333334,2.1451792331879057e-05
0.11175,2.2164534276997616e-05
0.11179166666666666,2.2874374094000228e-05
0.11183333333333334,2.358133420324272e-05
0.111875,2.4285437683854738e-05
0.11191666666666666,2.4986708145033776e-05
0.11195833333333334,2.5685169600266674e-05
0.112,2.638084634309023e-05
0.11204166666666666,2.7073762823631915e-05
0.11208333333333333,2.7763943526067374e-05
0.112125,2.845141284744902e-05
0.11216666666666666,2.9136194978323445e-05
0.11220833333333333,2.9818313785468127e-05
0.11225,3.049779269679795e-05
0.11229166666666666,3.1174654588115506e-05
0.11233333333333333,3.1848921671308946e-05
0.112375,3.2520615383821124e-05
0.11241666666666666,3.318975627932756e-05
0.11245833333333333,3.385636391961696e-05
0.1125,3.452045676782464e-05
0.11254166666666666,3.518205208334494e-05
0.11258333333333333,3.584116581882807e-05
0.112625,3.6497812519621924e-05
0.11266666666666666,3.715200522576105e-05
0.11270833333333333,3.78037553762727e-05
0.11275,3.84530727155863e-05
0.11279166666666667,3.909996520240109e-05
0.11283333333333333,3.974443892213288e-05
0.112875,4.0386498004444976e-05
0.11291666666666667,4.102614454702094e-05
0.11295833333333333,4.1663378546090033e-05
0.113,4.2298197833908185e-05
0.11304166666666667,4.2930598023370133e-05
0.11308333333333333,4.356057245970962e-05
0.113125,4.41881121788887e-05
0.11316666666666667,4.481320587223581e-05
0.11320833333333333,4.5435839857390476e-05
0.11325,4.605599805628728e-05
0.11329166666666667,4.6673661981131266e-05
0.11333333333333333,4.728881072895395e-05
0.113375,4.7901420984738756e-05
0.11341666666666667,4.851146703273345e-05
0.11345833333333333,4.911892077570992e-05
0.1135,4.972375176205343e-05
0.11354166666666667,5.032592721994952e-05
0.11358333333333333,5.092541209723389e-05
0.113625,5.152216910593176e-05
0.11366666666666667,5.211615877175318e-05
0.11370833333333333,5.270733948938781e-05
0.11375,5.3295667584118706e-05
0.11379166666666667,5.388109738006959e-05
0.11383333333333333,5.446358127559562e-05
0.113875,5.504306982616889e-05
0.11391666666666667,5.561951183447251e-05
0.11395833333333333,5.6192854447025225e-05
0.114,5.676304325674707e-05
0.11404166666666667,5.73300224110142e-05
0.11408333333333333,5.789373472476014e-05
0.114125,5.845412179821387e-05
0.11416666666666667,5.901112413887158e-05
0.11420833333333333,5.9564681287045456e-05
0.11425,6.0114731944075446e-05
0.11429166666666667,6.0661214102439276e-05
0.11433333333333333,6.120406517749115e-05
0.114375,6.17432221410606e-05
0.11441666666666667,6.227862165740484e-05
0.11445833333333333,6.281020022177943e-05
0.1145,6.333789430123268e-05
0.11454166666666667,6.386164047667573e-05
0.11458333333333333,6.438137558527823e-05
0.114625,6.489703686268723e-05
0.11466666666666667,6.540856208504971e-05
0.11470833333333333,6.591588971102496e-05
0.11475,6.641895902392261e-05
0.11479166666666667,6.691771027403858e-05
0.11483333333333333,6.74120848211077e-05
0.114875,6.79020252764154e-05
0.11491666666666667,6.838747564380981e-05
0.11495833333333333,6.8868381458823e-05
0.115,6.934468992524529e-05
0.11504166666666667,6.981635004882152e-05
0.11508333333333333,7.028331276816649e-05
0.115125,7.074553108292659e-05
0.11516666666666667,7.120296017852363e-05
0.11520833333333333,7.165555754629538e-05
0.11525,7.210328309805976e-05
0.11529166666666667,7.254609927464568e-05
0.11533333333333333,7.298397114831236e-05
0.115375,7.341686651925888e-05
0.11541666666666667,7.384475600643399e-05
0.11545833333333333,7.426761313255822e-05
0.1155,7.468541440317606e-05
0.11554166666666667,7.50981393798126e-05
0.11558333333333333,7.55057707474019e-05
0.115625,7.590829437586366e-05
0.11566666666666667,7.63056993754016e-05
0.11570833333333333,7.669797814517946e-05
0.11575,7.708512641548231e-05
0.11579166666666667,7.74671432838317e-05
0.11583333333333333,7.784403124541168e-05
0.115875,7.82157962177382e-05
0.11591666666666667,7.85824475592677e-05
0.11595833333333333,7.894399808177006e-05
0.116,7.930046405645551e-05
0.11604166666666667,7.96518652136932e-05
0.11608333333333333,7.999822473584052e-05
0.116125,8.03395692428664e-05
0.11616666666666667,8.067592877090583e-05
0.11620833333333333,8.100733674368748e-05
0.11625,8.13338299363718e-05
0.11629166666666667,8.165544843198895e-05
0.11633333333333333,8.197223557189341e-05
0.116375,8.228423790189026e-05
0.11641666666666667,8.259150511491216e-05
0.11645833333333333,8.289408999036501e-05
0.1165,8.319204832983411e-05
0.11654166666666667,8.348543888865763e-05
0.11658333333333333,8.377432330309903e-05
0.116625,8.405876601320949e-05
0.11666666666666667,8.43388341814148e-05
0.11670833333333333,8.461459760650676e-05
0.11675,8.488612863246026e-05
0.11679166666666667,8.515350205148917e-05
0.11683333333333333,8.54167950010885e-05
0.116875,8.567608685533436e-05
0.11691666666666667,8.593145911106923e-05
0.11695833333333333,8.618299526961268e-05
0.117,8.643078071434839e-05
0.11704166666666667,8.667490258413137e-05
0.11708333333333333,8.691544964240324e-05
0.117125,8.715251214241225e-05
0.11716666666666667,8.738618168948058e-05
0.11720833333333333,8.761655110131031e-05
0.11725,8.784371426695634e-05
0.11729166666666667,8.806776600453551e-05
0.11733333333333333,8.828880191725965e-05
0.117375,8.85069182474681e-05
0.11741666666666667,8.872221172883125e-05
0.11745833333333333,8.893477943705086e-05
0.1175,8.914471863929985e-05
0.11754166666666667,8.935212664291329e-05
0.11758333333333333,8.955710064422547e-05
0.117625,8.975973757843205e-05
0.11766666666666667,8.996013397094711e-05
0.11770833333333333,9.015838579020535e-05
0.11775,9.035458830170147e-05
0.11779166666666667,9.054883592353615e-05
0.11783333333333333,9.074122208424637e-05
0.117875,9.093183908363389e-05
0.11791666666666667,9.112077795693735e-05
0.11795833333333333,9.130812834246135e-05
0.118,9.149397835267622e-05
0.11804166666666667,9.167841444883515e-05
0.11808333333333333,9.186152131933676e-05
0.118125,9.204338176228453e-05
0.11816666666666667,9.222407657275775e-05
0.11820833333333333,9.240368443493236e-05
0.11825,9.258228181857863e-05
0.11829166666666667,9.275994287954748e-05
0.11833333333333333,9.293673936477059e-05
0.118375,9.311274052291877e-05
0.11841666666666667,9.32880130216659e-05
0.11845833333333333,9.346262087228451e-05
0.1185,9.363662536240088e-05
0.11854166666666667,9.381008499763268e-05
0.11858333333333333,9.39830554523175e-05
0.118625,9.41555895288197e-05
0.11866666666666667,9.432773712409175e-05
0.11870833333333333,9.449954520180303e-05
0.11875,9.467105776888934e-05
0.11879166666666667,9.48423158561219e-05
0.11883333333333333,9.501335750268606e-05
0.118875,9.518421774549395e-05
0.11891666666666667,9.535492861513647e-05
0.11895833333333333,9.552551914079177e-05
0.119,9.569601536548508e-05
0.11904166666666667,9.586644037186767e-05
0.11908333333333333,9.603681431824969e-05
0.119125,9.620715448486865e-05
0.11916666666666667,9.637747533046854e-05
0.11920833333333333,9.654778855886891e-05
0.11925,9.671810319472997e-05
0.11929166666666667,9.688842566752456e-05
0.11933333333333333,9.70587599028883e-05
0.119375,9.722910742079876e-05
0.11941666666666667,9.739946744002518e-05
0.11945833333333333,9.75698369880297e-05
0.1195,9.774021101533603e-05
0.11954166666666667,9.791058251344236e-05
0.11958333333333333,9.808094263565281e-05
0.119625,9.825128082084883e-05
0.11966666666666667,9.842158492086978e-05
0.11970833333333333,9.859184133207441e-05
0.11975,9.876203513077921e-05
0.11979166666666667,9.893215021143382e-05
0.11983333333333333,9.910216942623568e-05
0.119875,9.927207472550201e-05
0.11991666666666667,9.94418472989887e-05
0.11995833333333333,9.9611467718674e-05
0.12,9.978091608315448e-05
0.12004166666666667,9.995017216332886e-05
0.12008333333333333,0.00010011921554875725
0.120125,0.00010028802579396015
0.12016666666666667,0.00010045658256402048
0.12020833333333333,0.00010062486577899543
0.12025,0.00010079285575661476
0.12029166666666667,0.00010096053335278542
0.12033333333333333,0.0001011278800996395
0.120375,0.0001012948783410526
0.12041666666666667,0.00010146151136570798
0.12045833333333333,0.00010162776353783389
0.1205,0.00010179362042541268
0.12054166666666667,0.00010195906892516987
0.12058333333333333,0.00010212409738357542
0.120625,0.0001022886957132989
0.12066666666666667,0.00010245285550460493
0.12070833333333333,0.00010261657013128353
0.12075,0.00010277983485095367
0.12079166666666667,0.00010294264689955667
0.12083333333333333,0.00010310500557992371
0.120875,0.00010326691234499049
0.12091666666666667,0.0001034283708766326
0.12095833333333333,0.00010358938716050771
0.121,0.00010374996955656523
0.12104166666666667,0.00010391012886472903
0.12108333333333333,0.00010406987838536665
0.121125,0.00010422923397428532
0.12116666666666667,0.00010438821409185635
0.12120833333333333,0.00010454683984543274
0.12125,0.00010470513502419649
0.12129166666666667,0.0001048631261260379
0.12133333333333333,0.00010502084237627149
0.121375,0.00010517831573818309
0.12141666666666667,0.0001053355809162073
0.12145833333333333,0.00010549267535314228
0.1215,0.00010564963922239331
0.12154166666666667,0.00010580651541534274
0.12158333333333333,0.0001059633495234661
0.121625,0.00010612018981502667
0.12166666666666667,0.00010627708720679072
0.12170833333333334,0.00010643409523152745
0.12175,0.00010659127000177827
0.12179166666666667,0.00010674867017004797
0.12183333333333334,0.00010690635688549548
0.121875,0.0001070643937469397
0.12191666666666667,0.00010722284675157036
0.12195833333333334,0.00010738178423863847
0.122,0.00010754127682757367
0.12204166666666667,0.00010770139735033051
0.12208333333333334,0.00010786222077829866
0.122125,0.00010802382414434446
0.12216666666666667,0.00010818628646021316
0.12220833333333334,0.0001083496886292067
0.12225,0.00010851411335409671
0.12229166666666667,0.00010867964504031043
0.12233333333333334,0.00010884636969448933
0.122375,0.00010901437481869176
0.12241666666666666,0.00010918374930065462
0.12245833333333334,0.00010935458330053871
0.1225,0.00010952696813444255
0.12254166666666666,0.00010970099615472816
0.12258333333333334,0.00010987676062708049
0.122625,0.00011005435560428571
0.12266666666666666,0.00011023387579675163
0.12270833333333334,0.00011041541643980678
0.12275,0.0001105990731580255
0.12279166666666666,0.00011078494182725264
0.12283333333333334,0.0001109731184353325
0.122875,0.0001111636989423981
0.12291666666666666,0.0001113567791408694
0.12295833333333334,0.0001115524545146411
0.123,0.0001117508200970109
0.12304166666666666,0.00011195197032750617
0.12308333333333334,0.0001121559989081745
0.123125,0.00011236299865998334
0.12316666666666666,0.00011257306137997059
0.12320833333333334,0.00011278627769978783
0.12325,0.00011300273694620958
0.12329166666666666,0.0001132225270038292
0.12333333333333334,0.00011344573417946174
0.123375,0.00011367244306757297
0.12341666666666666,0.00011390273641700516
0.12345833333333334,0.00011413669500014829
0.1235,0.00011437439748538438
0.12354166666666666,0.00011461592031328412
0.12358333333333334,0.00011486133757766359
0.123625,0.00011511072091307986
0.12366666666666666,0.00011536413938970335
0.12370833333333334,0.0001156216594153762
0.12375,0.00011588334464401445
0.12379166666666666,0.00011614925588966673
0.12383333333333334,0.00011641945104585451
0.123875,0.00011669398500946919
0.12391666666666666,0.00011697290960814214
0.12395833333333334,0.00011725627353069136
0.124,0.00011754412226120672
0.12404166666666666,0.0001178364980176188
0.12408333333333334,0.00011813343969577488
0.124125,0.00011843498282038416
0.12416666666666666,0.00011874115950404767
0.12420833333333334,0.00011905199841513286
0.12425,0.00011936752475496485
0.12429166666666666,0.00011968776024446763
0.12433333333333334,0.00012001272312008818
0.124375,0.000120342428138996
0.12441666666666666,0.00012067688659398514
0.12445833333333334,0.00012101610633859629
0.1245,0.0001213600918224646
0.12454166666666666,0.00012170884413615892
0.12458333333333334,0.0001220623610644181
0.124625,0.00012242063714695166
0.12466666666666666,0.0001227836637465665
0.12470833333333334,0.00012315142912486027
0.12475,0.00012352391852602548
0.12479166666666666,0.00012390111426949978
0.12483333333333334,0.00012428299585198136
0.124875,0.00012466954005852578
0.12491666666666666,0.0001250607210814286
0.12495833333333334,0.000125456510644939
0.125,0.00012585687813392932
0.12504166666666666,0.00012626179072542266
0.12508333333333332,0.0001266712135228324
0.125125,0.00012708510969317992
0.12516666666666668,0.00012750344060726265
0.12520833333333334,0.0001279261659822769
